-254.1748374;-254.4179763;-254.1488144;-254.4118526;-254.1933722;-254.4859488;-254.503936;-254.4897041;-254.1695141;-254.0859474;-254.2892442;-254.2511629;-254.1921891;-254.2093459;-254.2296609;-254.2541222;-253.9605035;-254.2742471;-254.2849028;-254.291415;-254.3265473;-254.3352332;-254.0812188;-254.0818099;-254.1153077;-254.4059268;-254.1588681;-254.4432641;-254.4669761;-254.4565027;-254.4084946;-254.3855835;-254.3372073;-254.0047984;-254.3786715;-254.3593199;-254.2789829;-254.2975328;-254.3131248;-254.0412302;-254.3808438;-254.358925;-254.3656385;-254.3664283;-254.3901259;-254.4059268;-254.4223223;-254.1791751;-254.1933722;-254.4774502;-254.468557;-254.4266684;-254.0973754;-254.0487148;-254.2560951;-253.9115018;-254.1756261;-254.2042183;-254.2521494;-254.2436664;-254.260041;-254.3853861;-254.3172699;-254.3330617;-254.3411557;-254.139747;-254.1460547;-254.403359;-254.4025689;-254.4102724;-254.1375788;-254.1695141;-254.4399053;-254.437732;-254.407507;-254.0091303;-254.2592518;-254.2067821;-254.2393265;-254.2618167;-254.019173;-254.0229145;-254.0382759;-254.0642763;-254.1058486;-254.1539397;-254.165571;-254.4462279;-254.4760668;-254.2245325;-254.5074942;-254.5082849;-254.5725478;-254.6018229;-254.5013662;-254.2501765;-254.418964;-254.4035565;-254.3595173;-254.3277317;-254.038079;-254.0715653;-254.0889028;-254.3915084;-254.4278537;-254.4426714;-254.4385223;-254.4897041;-254.4823912;-254.5025522;-254.5407089;-254.3010853;-254.6156715;-254.6408008;-254.6164629;-254.5964816;-254.6216071;-254.5505959;-254.5128317;-254.4549219;-254.3782766;-254.3780791;-254.1038781;-254.1237821;-254.4523532;-254.1427037;-254.4205443;-254.433583;-254.4327928;-254.4725095;-254.2438637;-254.2856921;-254.6140887;-254.5620658;-254.3342461;-254.5656256;-254.3695877;-254.6665288;-254.5454545;-254.4851582;-254.4353611;-254.3909159;-254.3591224;-253.9983008;-254.291415;-254.3243759;-254.344512;-254.3768942;-254.4011863;-254.4150132;-254.1298919;-254.1592624;-254.4280513;-254.1789779;-254.1779921;-254.4762644;-254.4980058;-254.2695116;-254.2768123;-254.5181694;-254.5082849;-254.4671737;-254.1109722;-254.0995429;-254.3105589;-254.3200333;-254.3462888;-254.3370099;-254.3318772;-254.0932376;-254.3131248;-254.0625034;-254.0804308;-254.1507856;-254.4000012;-254.1959358;-254.4424738;-254.4744858;-254.4906924;-254.2839161;-254.2645789;-254.4707309;-254.4385223;-254.4657904;-254.2977302;-254.2710901;-253.9179949;-254.2355785;-254.2744444;-254.3070062;-254.3275343;-254.3707726;-254.505122;-254.3686004;-254.4284464;-254.4655927;-254.5978664;-254.4827865;-254.5035406;-254.3038484;-254.340366;-254.6645496;-254.6532684;-254.7065166;-254.6698937;-254.590745;-254.478636;-254.447611;-254.3968411;-254.4353611;-254.2363676;-254.2693142;-254.2939805;-254.2880602;-254.5381384;-254.539918;-254.5436749;-254.5438726;-254.5889647;-254.5622635;-254.3731422;-254.6111211;-254.633677;-254.4264709;-254.4160009;-254.4329903;-254.6059773;-254.4991919;-254.4946456;-254.433583;-254.4035565;-254.4084946;-254.365441;-254.3974336;-254.4116551;-254.4051367;-254.4282489;-254.1395499;-254.1237821;-254.4063218;-254.4385223;-254.4590716;-254.479229;-254.2653681;-254.5462455;-254.5513869;-254.5672078;-254.5442681;-254.260041;-254.2286747;-254.4361514;-254.4148156;-254.1239792;-254.3480657;-254.3484606;-254.3725498;-254.374722;-254.396446;-254.146646;-254.6473313;-254.5013662;-254.5163901;-254.4608501;-254.2395238;-254.4934596;-254.5037383;-254.504529;-254.5155993;-254.5314158;-254.5053197;-254.1553196;-254.3528042;-254.34313;-254.090085;-254.0392607;-254.2708927;-254.2837188;-253.9752667;-254.2592518;-254.3145065;-254.3385893;-254.3794615;-254.4000012;-254.4353611;-254.1917947;-254.2065848;-254.5013662;-254.5025522;-254.5146109;-254.7403774;-254.7572121;-254.5343816;-254.2722739;-254.4294342;-254.3812388;-254.3464863;-254.3265473;-254.3200333;-254.3366151;-254.3466837
-253.8658626;-253.8656659;-253.5723544;-253.6864158;-254.0810218;-254.1476316;-254.1746402;-253.9309821;-254.2667492;-254.3188489;-254.3539888;-254.3676131;-254.154334;-254.4235076;-254.2063876;-254.4810077;-254.4942502;-254.4260757;-254.2829294;-254.1486173;-253.7404393;-253.6897548;-253.94771;-253.9618813;-254.0079488;-254.009721;-254.1312716;-254.4118526;-254.2464282;-254.305822;-254.3362203;-254.3676131;-254.3838061;-254.1440835;-254.4365466;-254.2176293;-254.4987965;-254.4387198;-254.4393126;-254.4165935;-254.3555684;-254.2292664;-254.12122;-254.0589576;-253.9687707;-253.9429866;-254.162811;-253.9605035;-253.6891655;-253.7632343;-254.1411268;-253.8603555;-254.2109236;-254.2199961;-254.2349868;-254.395656;-254.3516196;-254.5059127;-254.4908901;-254.3348384;-254.3628741;-254.3435248;-254.0170068;-253.9111083;-254.0272471;-253.93295;-253.8987133;-253.8910408;-254.2294637;-254.2764176;-254.1614309;-254.2150653;-254.2799695;-254.3006906;-254.3385893;-254.5620658;-254.4090872;-254.4369417;-254.4740905;-254.5268684;-254.5527711;-254.3711675;-254.4122477;-254.3581352;-254.2975328;-254.1645853;-254.0315797;-254.0158253;-254.1793723;-254.0337461;-253.8021525;-254.0938287;-254.1255559;-254.1509828;-254.2334087;-254.4084946;-254.4503772;-254.2572788;-254.3210202;-254.3494477;-254.3626766;-254.4156058;-254.5681966;-254.5683944;-254.3618868;-254.2977302;-254.1588681;-254.0660493;-254.019173;-254.1427037;-254.1947526;-254.0323675;-254.0695952;-254.2835214;-254.3052299;-254.3285213;-254.3581352;-254.3903234;-253.9697549;-253.9817631;-253.9918036;-254.4339782;-254.2637897;-254.2728659;-254.0451694;-254.0390637;-253.9203561;-254.0589576;-253.9660149;-253.853472;-253.792127;-253.5435118;-254.1750346;-254.2357758;-254.0648673;-254.0847652;-254.1312716;-254.132257;-254.1606424;-254.1833158;-254.2099375;-254.2553059;-254.0303981;-254.3648486;-254.3561607;-254.3782766;-254.4867394;-254.4169886;-254.1720771;-253.999876;-253.8876965;-253.7999901;-253.7815126;-253.7758126;-253.9061895;-254.0355186;-254.0922524;-254.1291035;-254.1762176;-254.3867685;-254.2255188;-254.4576884;-254.4555147;-254.3101642;-254.3208228;-254.3664283;-254.1606424;-254.2101347;-254.2880602;-254.1446748;-253.9799913;-253.6102326;-253.8808115;-253.8446223;-253.8792379;-254.0481239;-254.1395499;-254.2314362;-254.2539249;-254.2697089;-254.3079931;-254.5189602;-254.3543837;-254.3907184;-254.4440545;-254.1955414;-254.4798219;-254.4899018;-254.1090016;-254.1149136;-254.258068;-254.1306803;-254.0447755;-253.9370826;-253.87196;-253.9018611;-253.9465292;-254.0140531;-254.0386698;-253.7748299;-254.1013164;-254.1456604;-254.3883485;-254.4015814;-254.4150132;-254.4329903;-254.436349;-254.4594668;-254.3717599;-254.1740488;-254.1602481;-254.3198359;-254.2034295;-254.0833861;-253.9986946;-253.9231109;-253.9211432;-254.1541368;-254.1149136;-253.9032383;-254.2472173;-253.9874723;-254.2631978;-254.0181883;-254.3145065;-254.3269421;-254.3488554;-254.5405111;-254.5500026;-254.5537599;-254.4904948;-254.3083878;-254.2464282;-254.1058486;-254.0223238;-253.908944;-253.8587821;-253.4401639;-254.0500936;-254.003617;-254.1054545;-254.1781893;-254.3798564;-254.4071119;-254.4385223;-254.3289161;-254.3565556;-254.3796589;-254.4084946;-254.4260757;-254.3824237;-254.3840036;-254.3980261;-254.5128317;-254.200077;-254.1214171;-254.1866678;-253.8735335;-253.8410826;-253.9213399;-253.5464546;-253.5970819;-253.6070921;-254.003617;-254.0948139;-254.1669511;-254.134228;-254.1663596;-254.2227574;-254.239721;-254.2470201;-254.2736552;-254.3048352;-254.3368125;-254.3575429;-254.194161;-254.0855533;-254.2570816;-253.8975329;-253.9132726;-254.2073737;-254.2132903;-254.213882;-254.1365933;-254.1196434;-254.1277239;-254.2196016;-254.2251243;-254.2687223;-254.4861464;-254.4879253;-254.3630715;-254.3676131;-254.379264;-254.4264709;-254.4205443;-254.3585301;-254.3759068;-254.1013164;-254.0804308
-253.8137517;-253.6017925;-253.6367345;-253.6815057;-254.0303981;-254.0542301;-253.7141123;-253.1159597;-253.7302222;-253.6110178;-253.494867;-253.0711923;-253.0790108;-253.0670878;-253.1372737;-253.5268371;-253.5370378;-252.7418873;-252.7816629;-253.3731406;-253.4117432;-253.4783947;-253.8432458;-253.8855326;-253.6025776;-253.703308;-253.7178449;-253.7376885;-253.696433;-253.8666493;-253.3635408;-253.6086623;-253.4907487;-253.0039734;-253.0461765;-253.4423202;-253.4495735;-253.1814775;-253.1382515;-253.1863683;-253.1808906;-253.2350905;-253.2613182;-253.348065;-253.4258547;-253.468983;-253.8513087;-253.5441004;-253.5855026;-253.6455697;-253.6192623;-253.4566311;-253.2760003;-253.165046;-253.0661106;-252.9918621;-252.972135;-252.9957689;-253.4442805;-253.0709969;-253.1061838;-253.1625032;-253.21376;-253.2667993;-253.6891655;-253.4091955;-252.9820958;-253.8233856;-253.5751017;-253.6074846;-253.6532273;-253.6889691;-253.7308116;-253.2133686;-253.4876111;-253.38666;-253.2556416;-253.1789344;-252.6405553;-252.6906265;-253.6094475;-253.5762791;-253.2671908;-253.3086985;-253.431539;-253.7659857;-253.4217387;-253.4654538;-253.5233062;-253.9028448;-253.6852374;-254.0215361;-254.0252777;-254.0565938;-254.0871295;-253.7775816;-253.5131066;-253.4164469;-252.6132874;-253.0995366;-252.544365;-253.0876117;-253.1024692;-253.1425539;-253.4987893;-253.5441004;-253.5825589;-253.5894277;-253.6396795;-253.6628491;-253.7088082;-253.5044768;-253.5286025;-253.9325564;-253.9418058;-253.9831412;-253.9711328;-253.6165141;-253.4831009;-253.4186028;-253.5154603;-253.4393797;-253.3821534;-253.0162812;-253.5705884;-253.5752979;-253.2810905;-252.8450567;-253.4115473;-253.8222059;-253.537234;-253.8922211;-253.6178882;-253.6383051;-253.6555836;-254.0051922;-253.7166662;-254.1306803;-254.09974;-253.8794346;-253.3827412;-253.2746299;-252.5799897;-252.5013562;-252.9750646;-253.0260501;-253.0369922;-253.0788154;-252.6047188;-253.1587869;-253.218652;-253.6345749;-253.3067403;-253.3572719;-253.3815656;-253.4648656;-253.4791791;-253.5450813;-253.5782415;-253.6367345;-253.6817021;-253.6734536;-253.5399805;-253.3872478;-253.2787411;-253.1613296;-253.1167418;-253.0917169;-253.1165462;-253.529191;-253.5015349;-253.1556575;-253.5856988;-253.3461062;-253.6989865;-253.3823493;-253.4042961;-253.4625128;-253.5082032;-253.569411;-253.9055992;-253.9412154;-253.7329729;-253.75557;-253.2589692;-253.6889691;-253.5486127;-253.0385554;-252.9869789;-253.3343539;-253.3439515;-253.3474773;-253.0586838;-253.0928898;-253.1036422;-253.1671976;-253.5931566;-253.2977329;-253.3280864;-253.40508;-253.4654538;-253.4727084;-253.5525367;-253.5868764;-253.689362;-253.7017365;-253.6549945;-253.4760417;-253.355117;-253.5962969;-253.1370781;-253.1423583;-253.1609384;-253.1851945;-253.5727469;-253.6119993;-253.6059143;-253.5847176;-253.6412502;-253.6697223;-253.7178449;-253.4603562;-253.5007504;-253.9103212;-253.6652056;-254.0231115;-253.7229528;-254.0447755;-253.6204401;-253.5248755;-253.3598186;-253.2566203;-253.4825126;-253.4570232;-253.089762;-252.638023;-253.5144796;-253.4817282;-253.5060458;-253.2102378;-253.2499652;-253.649693;-253.372161;-253.7365096;-253.4917292;-253.8485554;-253.537234;-253.5670563;-253.6172993;-253.1894984;-253.0567294;-253.3688304;-253.2560331;-253.1300382;-253.415075;-253.377451;-252.9955735;-253.035429;-253.4685908;-253.447221;-253.2474207;-253.2127816;-253.2859851;-253.2824609;-253.3384671;-253.7082189;-253.6966294;-253.7386709;-253.4693751;-253.5525367;-253.6302557;-253.9345243;-253.4105673;-253.3251487;-253.1883246;-253.0860479;-253.0149136;-252.450193;-252.4708114;-252.4828728;-253.0923033;-253.4927098;-253.5231101;-253.5083993;-253.546847;-252.767428;-252.8393987;-253.4513378;-253.4915331;-253.5611698;-253.5974745;-253.6361455;-253.9774322;-253.6412502;-253.8644858;-253.3653039;-253.2660163;-252.6428928;-253.1249541;-253.4668262
-229.7068988;-237.1200269;-241.2355453;-245.0310673;-241.3067845;-237.1365009;-246.0021922;-250.8347891;-250.2986748;-240.508336;-228.9635742;-213.830494;-180.801304;-178.2050062;-168.2279361;-179.6891537;-195.0941563;-211.3276033;-227.5818001;-253.5939417;-255.0000778;-254.095602;-246.52783;-234.7641862;-204.1052774;-195.4638919;-192.4347485;-201.62918;-212.5437597;-236.2799767;-254.9369874;-254.9905527;-252.5478686;-245.8218832;-233.0890073;-205.2869519;-209.7090684;-212.3802376;-215.0332292;-226.1605507;-246.2615843;-255.0000778;-255.0000778;-255.0000778;-254.2551087;-250.0368184;-230.9788068;-214.1621389;-204.0300401;-211.2793663;-222.2926255;-240.6151853;-255.0000778;-255.0000778;-254.9996809;-253.722167;-247.9998123;-227.5765841;-216.6724085;-207.0933927;-215.3398863;-226.8433488;-252.2049751;-255.0000778;-254.9562286;-253.0747106;-249.2649548;-239.0246144;-213.7378787;-203.6078615;-197.2460082;-205.2905531;-212.9505548;-241.9212536;-254.9909496;-254.9998794;-253.0653288;-248.0075083;-232.6785263;-212.6335489;-200.1714167;-195.8048393;-214.1477225;-244.9863664;-251.4694698;-249.0648761;-239.4135475;-212.4459192;-192.4616495;-188.5025361;-193.4987445;-201.0341599;-208.4747628;-217.7822855;-227.6953481;-235.2943711;-245.8333177;-250.772975;-253.8227958;-254.7350303;-254.9955136;-254.8808671;-253.6200475;-251.4766106;-248.7885916;-249.2124409;-249.4915678;-249.9801645;-248.637566;-248.2694557;-247.5566932;-246.9395384;-248.4243662;-250.5338764;-251.0704226;-245.2603238;-236.3428634;-228.9346195;-229.18714;-235.4808828;-242.0665526;-245.0438943;-245.056906;-245.7052017;-243.7415107;-237.3885306;-224.5460869;-209.4541038;-197.6101278;-201.2902925;-207.9202204;-207.8508462;-207.9748554;-205.4785071;-171.4396335;-116.4677434;-93.76801952;-91.44787775;-116.1744372;-125.5662399;-133.7604917;-137.9129507;-138.4837494;-140.8872193;-142.2979245;-143.7456789;-146.7074876;-157.261697;-170.7620479;-212.4475721;-247.1805858;-249.0739636;-250.5074444;-254.1214171;-254.5078895;-254.895341;-254.9233021;-254.9334172;-253.6135696;-252.3710572;-252.2550681;-250.7764296;-251.9137434;-252.5223723;-252.000926;-253.9418058;-253.959913;-253.4131151;-250.7445737;-247.3509436;-242.6971252;-235.6024519;-225.5296509;-221.2206258;-228.6373377;-235.2830512;-243.8354656;-246.3926898;-250.2441956;-250.4706788;-252.1193972;-248.0801743;-237.4033219;-219.2557203;-207.4891639;-203.5509443;-213.4093523;-218.152597;-215.9976849;-218.2078019;-219.7089679;-220.6392323;-213.3226565;-205.2969842;-196.6937773;-194.1878182;-203.1180263;-203.250444;-203.9405139;-205.0659751;-214.5014137;-223.3252819;-235.0863952;-242.0166702;-245.713493;-251.342354;-253.6312373;-254.6485187;-254.9804331;-254.9838062;-254.4420786;-252.8593003;-251.1448948;-248.5675901;-248.3138574;-247.906185;-248.1092901;-248.6877617;-248.5202702;-248.3533808;-247.746113;-246.5408143;-244.9165996;-243.5711981;-242.8825992;-240.7691799;-235.3716116;-230.6649913;-231.6702501;-232.5320639;-238.5905486;-245.9942509;-250.107815;-251.0919708;-246.1833208;-234.8399008;-216.0461064;-196.3053826;-191.6315378;-201.3027823;-208.0684879;-208.2950598;-213.616234;-220.4085971;-223.4730219;-230.5578717;-234.673225;-235.9745409;-233.3467928;-220.6689501;-225.385226;-221.6292629;-222.0838072;-219.9005022;-223.6452254;-228.2199582;-241.143583;-246.9216741;-250.5139561;-252.6594514;-253.5535177;-252.6428928;-252.1931344;-251.466575;-250.611289;-248.6405847;-249.6130149;-249.8408329;-248.806727;-249.7496178;-249.0077156;-247.460223;-242.8287808;-241.4422726;-237.7448953;-234.6214709;-228.1590951;-223.8401702;-224.7484638;-235.3499724;-244.5548537;-248.0168942;-248.8263766;-242.856497;-232.9302709;-221.9685679;-222.6713357;-229.0586484;-233.6497913;-234.5734339;-234.0603655;-236.1926043;-237.4000539;-237.9042183;-235.1807153;-228.7885178;-225.4477202;-220.3848782;-213.3409901;-213.6549558
-254.4487965;-254.4721142;-254.4590716;-254.4422762;-254.4209394;-254.4440545;-254.4389174;-254.4616405;-254.4865417;-254.5681966;-254.5602859;-254.62042;-254.6301153;-254.6287302;-254.6172543;-254.6134952;-254.6077578;-254.6255644;-254.6271473;-254.6223986;-254.6328855;-254.6168586;-254.5915363;-254.4980058;-254.3980261;-254.3314824;-254.2541222;-254.1856819;-254.2267022;-254.2555032;-254.3545812;-254.3733397;-254.4041491;-254.4420786;-254.4699404;-254.4938549;-254.5211349;-254.5500026;-254.5761079;-254.5990533;-254.6295217;-254.6760297;-254.6944397;-254.7142384;-254.7245349;-254.7488935;-254.7657294;-254.7718701;-254.7015669;-254.6538621;-254.5865911;-254.4849606;-254.4154083;-254.37097;-254.3370099;-254.3202307;-254.3180594;-254.4489941;-254.5345793;-254.5387316;-254.5480252;-254.5353702;-254.5717567;-254.615078;-254.6437692;-254.6673206;-254.7041407;-254.7288914;-254.7564198;-254.7764262;-254.7918789;-254.7657294;-254.7698891;-254.7685025;-254.7578063;-254.6293238;-254.5573195;-254.4563051;-254.3958535;-254.2961514;-254.2708927;-254.3543837;-254.4274586;-254.4320025;-254.48417;-254.4995872;-254.5252867;-254.5353702;-254.558506;-254.6309068;-254.6152758;-254.6605911;-254.6853334;-254.7275052;-254.7494877;-254.7964358;-254.7944545;-254.8002003;-254.7819731;-254.7617678;-254.7603813;-254.7582025;-254.7061206;-254.6318962;-254.5205418;-254.4673713;-254.3528042;-254.335628;-254.3160855;-254.3330617;-254.513227;-254.5418953;-254.5405111;-254.5339862;-254.5810527;-254.5854042;-254.583624;-254.6196286;-254.6140887;-254.6293238;-254.6352601;-254.6649454;-254.6912722;-254.7144364;-254.7203766;-254.7372087;-254.7429519;-254.753845;-254.7294855;-254.5903494;-254.5343816;-254.4371393;-254.3241785;-254.2557005;-254.2093459;-254.2882575;-254.394471;-254.3998037;-254.3897309;-254.4080996;-254.4191615;-254.4604548;-254.4731024;-254.5239027;-254.584613;-254.6257622;-254.6485187;-254.6677164;-254.6833538;-254.7110704;-254.7425559;-254.7566179;-254.7459227;-254.7415656;-254.7203766;-254.5885691;-254.4922737;-254.4314098;-254.3326668;-254.2598437;-254.2430746;-254.30148;-254.3466837;-254.395261;-254.4246929;-254.4665808;-254.4630238;-254.5059127;-254.5413021;-254.5642412;-254.5972729;-254.627543;-254.6641537;-254.6964195;-254.725129;-254.7443383;-254.7566179;-254.7643428;-254.733248;-254.7643428;-254.725129;-254.7502799;-254.6447586;-254.5935144;-254.4796242;-254.3810413;-254.2993091;-254.2614221;-254.218221;-254.2714847;-254.3249681;-254.4229149;-254.4958315;-254.5482229;-254.5812505;-254.5917341;-254.6073621;-254.6318962;-254.6605911;-254.6902824;-254.7075065;-254.7209707;-254.7221587;-254.7417637;-254.7071105;-254.7017649;-254.7081005;-254.7271092;-254.7534489;-254.7601832;-254.6776133;-254.6036033;-254.5063081;-254.4209394;-254.3261525;-254.2482037;-254.2712874;-254.2801668;-254.3668232;-254.4280513;-254.4505748;-254.491483;-254.5239027;-254.5496071;-254.5679989;-254.5905472;-254.5996468;-254.5937122;-254.6180457;-254.6528725;-254.6726648;-254.6934499;-254.7233468;-254.7419617;-254.7114664;-254.7280993;-254.7061206;-254.6835518;-254.6010316;-254.5124363;-254.3928909;-254.3826212;-254.3285213;-254.3072036;-254.3950635;-254.447611;-254.4893088;-254.4766597;-254.5098664;-254.5438726;-254.5614725;-254.5879757;-254.6107254;-254.640405;-254.6746441;-254.6902824;-254.6942418;-254.7183965;-254.7318618;-254.7514682;-254.7043387;-254.6938458;-254.7057246;-254.7286934;-254.7084965;-254.6425818;-254.5638457;-254.4756715;-254.4110625;-254.3399712;-254.2267022;-254.2381429;-254.2630005;-254.3168751;-254.307401;-254.3528042;-254.3583326;-254.4282489;-254.4229149;-254.5104594;-254.5521779;-254.5699766;-254.6097362;-254.6388219;-254.6475292;-254.6819682;-254.7191886;-254.7114664;-254.6726648;-254.6776133;-254.6853334;-254.7320598;-254.7110704;-254.660987;-254.5668122;-254.48417;-254.3591224;-254.2740498;-254.2278857;-254.1850904
-254.7756338;-254.7813788;-254.7873221;-254.7451305;-254.7288914;-254.6762277;-254.5966795;-254.5213326;-254.4493893;-254.3350358;-254.2779962;-254.2535304;-254.2918097;-254.4322001;-254.4636166;-254.5017616;-254.5242981;-254.5602859;-254.5816461;-254.6180457;-254.6679143;-254.7039427;-254.7221587;-254.7437441;-254.7645409;-254.7714739;-254.7893033;-254.7710777;-254.7803883;-254.7754358;-254.77603;-254.7084965;-254.6186393;-254.5604837;-254.453934;-254.3687979;-254.2227574;-254.2626059;-254.3409583;-254.4003963;-254.413828;-254.4389174;-254.468557;-254.4958315;-254.4980058;-254.5114478;-254.5327998;-254.5598904;-254.5927231;-254.6313025;-254.6483208;-254.6651434;-254.6849375;-254.7035467;-254.7298815;-254.7635505;-254.7611735;-254.7609755;-254.619035;-254.4693475;-254.3119406;-254.3085852;-254.2300554;-254.2704981;-254.3741296;-254.3962485;-254.4454375;-254.4837747;-254.5098664;-254.5385338;-254.5676033;-254.6111211;-254.6427797;-254.6841456;-254.7130504;-254.7403774;-254.7554295;-254.7247329;-254.7168125;-254.7205746;-254.7247329;-254.7496857;-254.7722662;-254.7102784;-254.6504977;-254.5695811;-254.4851582;-254.3676131;-254.2969408;-254.2270967;-254.3139143;-254.3492503;-254.4576884;-254.4912854;-254.5061104;-254.5205418;-254.5440704;-254.5747234;-254.6008337;-254.6281366;-254.6455502;-254.6756339;-254.7061206;-254.7263171;-254.7477052;-254.7683044;-254.7534489;-254.7544392;-254.7688987;-254.778011;-254.6906783;-254.6085492;-254.5033429;-254.4241002;-254.3443145;-254.2722739;-254.2379457;-254.2839161;-254.317862;-254.4023714;-254.5041336;-254.5213326;-254.5486184;-254.5594948;-254.585602;-254.6198264;-254.6576224;-254.6778112;-254.700181;-254.7183965;-254.7294855;-254.74315;-254.7482993;-254.7261191;-254.7237429;-254.7207726;-254.678801;-254.6012294;-254.5128317;-254.4161984;-254.3350358;-254.2736552;-254.313717;-254.3559633;-254.3859785;-254.4225198;-254.456898;-254.4746834;-254.5181694;-254.5535621;-254.5857999;-254.6524767;-254.6576224;-254.6748421;-254.7128524;-254.7419617;-254.750676;-254.762362;-254.7320598;-254.7300796;-254.74315;-254.7057246;-254.6396135;-254.5502004;-254.442869;-254.374327;-254.3024668;-254.271682;-254.3530016;-254.4114576;-254.4851582;-254.4653951;-254.4912854;-254.5492117;-254.5749212;-254.5689878;-254.619035;-254.6449565;-254.6568307;-254.6995871;-254.6956276;-254.7086945;-254.7399813;-254.7320598;-254.7776148;-254.7558256;-254.7342382;-254.7221587;-254.658612;-254.5282523;-254.4592692;-254.3798564;-254.2827321;-254.2537276;-254.2894416;-254.321415;-254.3447094;-254.407507;-254.4148156;-254.4337806;-254.5274615;-254.5252867;-254.5413021;-254.60756;-254.6127038;-254.6091427;-254.6653413;-254.668904;-254.6597995;-254.700973;-254.6793948;-254.7120604;-254.6954296;-254.6382283;-254.4545267;-254.3464863;-254.2671438;-254.1669511;-254.0623064;-254.1523627;-254.2237436;-254.3032563;-254.3591224;-254.396051;-254.410865;-254.4229149;-254.4426714;-254.481403;-254.5114478;-254.56879;-254.605186;-254.6208157;-254.656237;-254.678801;-254.7063186;-254.7298815;-254.7174065;-254.7288914;-254.7180005;-254.57235;-254.4622333;-254.3642563;-254.2645789;-254.1712885;-254.1204317;-254.1870622;-254.2687223;-254.3385893;-254.3763018;-254.4134329;-254.4241002;-254.4385223;-254.4725095;-254.5047267;-254.5612747;-254.5697789;-254.5889647;-254.6166608;-254.6313025;-254.6534663;-254.675238;-254.6544558;-254.6615807;-254.6704875;-254.6742483;-254.6516851;-254.4940526;-254.394076;-254.26596;-254.1344251;-254.0183853;-254.0774755;-254.2036267;-254.2535304;-254.3798564;-254.3749195;-254.3630715;-254.3614919;-254.3926934;-254.4464255;-254.4620357;-254.5021569;-254.5292409;-254.5711633;-254.6146823;-254.6461439;-254.6596016;-254.6886987;-254.6995871;-254.7114664;-254.6813743;-254.6849375;-254.6524767;-254.5725478;-254.3804489;-254.2541222;-254.1501943;-254.0311858;-254.0896909;-254.0946168
-139.5956765;-140.0896622;-140.4883629;-140.5121595;-140.4569276;-140.8252764;-140.7482721;-140.805609;-141.0612896;-141.1981178;-141.3617354;-141.0778091;-141.3841816;-141.3294814;-141.0384601;-140.9976768;-140.0934355;-139.4329152;-139.2459124;-138.7543823;-138.2342866;-138.6494636;-138.8082242;-139.2785247;-139.4656746;-139.5758159;-139.758401;-139.8185137;-140.0688824;-140.5404849;-140.4562051;-140.583477;-140.7328571;-140.9227262;-141.0583748;-141.1990304;-140.7595785;-140.6493728;-140.8328423;-141.0255914;-141.2400521;-140.7772371;-139.0956554;-139.0524471;-138.506696;-138.2538255;-138.8016387;-138.5973275;-139.1331006;-139.4947079;-139.5134762;-139.5786698;-139.9931215;-140.0585846;-140.1415487;-140.7014332;-140.720165;-140.8043989;-141.1771295;-141.1511006;-141.034757;-141.0169124;-141.0928137;-141.1726894;-141.2832905;-140.731346;-140.4184656;-139.908063;-139.4313726;-139.1025051;-138.5908206;-138.5715965;-138.5877725;-138.8066954;-139.2231935;-139.5327248;-139.4972615;-139.7791483;-139.9179204;-139.8503801;-140.2033713;-140.4024009;-140.3857384;-140.507279;-140.7432543;-140.708744;-140.9295146;-141.1412511;-141.1064846;-141.3485028;-140.4360387;-140.1021809;-139.6315469;-139.1511808;-138.8432203;-138.4295155;-138.0886478;-138.4339018;-138.7200769;-139.3364477;-139.6062632;-139.7936394;-139.9857054;-140.1531775;-140.2307921;-140.3577759;-140.4563857;-140.6203397;-140.7676816;-140.952127;-141.1310382;-140.9820252;-140.9820858;-141.1423454;-140.9903359;-140.9400621;-140.5683996;-139.6131633;-139.2346112;-138.8197504;-138.2705693;-138.2177849;-138.5953344;-139.1103003;-139.6936349;-139.7504733;-139.9656739;-140.3874826;-140.3950015;-140.5021579;-140.6099003;-140.6747942;-140.7897581;-140.927575;-141.1332265;-141.0099336;-141.0312363;-141.0642045;-140.8775277;-140.9000627;-141.0107831;-141.0016206;-140.89461;-138.8918914;-138.6917173;-138.1640504;-137.8538851;-138.0122811;-138.393617;-139.3541067;-139.8445906;-140.1000843;-140.1703245;-140.195333;-140.1097292;-140.2990609;-140.491977;-140.6103227;-140.6987144;-140.7875199;-140.8629927;-140.9548555;-141.3051025;-140.7681654;-140.7745155;-141.0209786;-141.0088413;-141.3263117;-141.3012027;-140.7286866;-139.2027882;-138.9964698;-138.4657837;-138.2118382;-138.6678877;-139.0480806;-139.181443;-139.2740256;-139.6618399;-139.4244905;-139.6186362;-139.988277;-139.983074;-140.0147164;-140.5311423;-140.5392793;-140.5260797;-141.0014992;-140.9575235;-140.9854221;-141.3667974;-141.0801781;-140.9453364;-141.0535777;-140.4525326;-139.0365164;-138.8041082;-138.4155983;-138.1013353;-138.1642251;-138.8914204;-139.7664488;-139.9807418;-140.114642;-140.4833636;-140.4709573;-140.4475359;-140.7867335;-140.897094;-141.3308834;-141.0996185;-140.8402879;-140.8915204;-141.0411312;-141.1795626;-140.9420626;-141.0183689;-140.9892439;-141.1145062;-140.2665094;-139.8348031;-139.2713617;-138.7963472;-138.405016;-138.1769848;-138.245951;-139.0933526;-139.4370093;-139.5966281;-139.7108484;-139.8408306;-139.9970691;-140.1049365;-140.0813974;-140.2059509;-140.4424793;-140.6638033;-140.759518;-140.8826762;-140.8495506;-140.9084244;-141.0292332;-141.0934213;-140.9574628;-140.3300649;-139.8153517;-139.2224245;-138.6616089;-138.1944093;-138.2276388;-138.5865416;-139.3804849;-139.6844641;-140.0466723;-140.1217721;-140.2728143;-140.4085977;-140.560018;-140.7237306;-140.8941254;-141.1022312;-141.0400992;-141.0129678;-140.9914885;-140.8320554;-140.8309054;-140.9314542;-141.0485989;-140.234153;-139.9090785;-139.4887696;-139.0365754;-138.6326866;-138.4299249;-138.8292198;-139.3768091;-139.7257423;-139.9535382;-140.0989462;-140.3425065;-140.4668023;-140.5573651;-140.7752412;-140.9326059;-140.9642545;-140.7751203;-140.8824339;-141.1044186;-141.2597801;-140.9933692;-141.0056252;-141.1267833;-141.230251;-140.2352933;-139.8938468;-139.3191487;-138.8450442;-138.4290477;-138.0462955;-138.4598157
-197.1567597;-232.6539104;-246.989423;-247.6532386;-232.3254811;-207.6761654;-193.8595848;-192.4537367;-209.3212375;-222.878532;-240.8089924;-249.2877114;-253.9483005;-254.9726951;-253.9268497;-252.5589641;-252.1537378;-252.3755279;-252.1193972;-252.5846625;-252.5745383;-252.1067886;-248.2589221;-242.2951302;-236.2828732;-230.3813417;-218.4734661;-191.9029118;-145.2271859;-87.64916367;-31.61327053;-13.49760535;-56.41952697;-67.93597138;-100.0259475;-144.8484787;-198.9238793;-235.6000802;-247.9046845;-249.6620834;-240.4520354;-222.6631648;-206.7743902;-203.2785624;-214.4063926;-224.5476257;-232.0738908;-243.3532198;-252.7810779;-252.233514;-254.368403;-253.5841288;-253.5054574;-252.0837084;-251.9412478;-250.6055389;-249.6740682;-246.9449354;-242.5528639;-229.6347793;-208.4043555;-180.2957297;-132.8258169;-88.72600056;-31.91351143;-38.40892547;-100.6198962;-114.1596737;-144.6416976;-194.3552917;-231.482201;-246.6672037;-252.0678068;-253.7445657;-253.6249552;-252.4887094;-249.444845;-243.2404946;-232.3795232;-222.502139;-219.1108647;-220.1834739;-225.6736393;-235.0025998;-242.5539412;-249.388459;-252.7664531;-251.2236486;-239.2219792;-229.6328481;-225.0774483;-228.3828429;-224.4677907;-246.8143571;-253.4681987;-253.8340035;-253.9400346;-249.1406257;-244.7493946;-234.3104193;-219.3941569;-185.9268254;-117.1333902;-82.63416546;-24.55909503;-39.78021634;-102.363319;-117.9426783;-164.0202609;-209.9121965;-238.00842;-248.4904925;-251.7654778;-252.542224;-247.8647414;-237.5714882;-219.7256162;-208.4188043;-204.0460488;-214.6766583;-224.4596412;-232.9620671;-239.8307783;-246.2930517;-251.9253642;-254.9994825;-255.0000778;-255.0000778;-255.0000778;-254.1929778;-250.3887609;-249.7916941;-251.2822165;-253.1967373;-252.8784243;-251.6255021;-248.1562657;-243.8895497;-236.066854;-217.1928845;-161.1818659;-86.98219025;-64.5519963;-29.18357768;-75.41119203;-100.9498846;-138.7623736;-188.0683605;-231.6034405;-247.7886412;-252.4984376;-253.3643244;-251.30303;-245.5704095;-237.9945903;-233.6179736;-232.1421234;-233.1969987;-234.1404786;-234.5469044;-239.5735391;-245.0318002;-253.341601;-255.0000778;-255.0000778;-254.8741264;-254.1480259;-252.1149355;-248.9702538;-250.8177008;-250.6902838;-249.9349743;-248.749685;-246.2651008;-238.3930098;-222.0335446;-173.7903177;-114.3746134;-91.31268499;-30.92708289;-51.03955297;-118.5588552;-135.9001754;-180.9535696;-225.2104883;-246.1326519;-250.9239165;-252.0864235;-249.0304252;-240.2033228;-228.6895177;-220.9802792;-215.2698576;-220.1839178;-229.839182;-237.2374547;-244.1341348;-247.112173;-252.3459852;-255.0000778;-255.0000778;-255.0000778;-254.9181457;-254.4604548;-252.3461795;-250.8282607;-253.0197979;-254.3764993;-251.6834842;-247.2753452;-235.9679135;-210.5773896;-180.5348331;-130.9687781;-71.78876877;-42.75693011;-60.02302223;-121.6739441;-145.5395829;-185.0280165;-229.3934763;-248.8125838;-253.1812819;-254.6714771;-254.9925371;-254.8269514;-253.0733424;-247.8518048;-237.1454254;-220.9929474;-214.8403564;-223.4681449;-235.0125442;-243.8630491;-248.003191;-249.3501236;-230.4374;-229.3339119;-225.520648;-227.3626159;-223.5847943;-206.1831668;-205.5942827;-204.0864629;-203.4187663;-195.9508553;-210.6663375;-244.9220916;-254.4600596;-254.8818584;-253.6693295;-249.3038331;-239.9716431;-217.9485815;-166.1028015;-86.92341974;-84.48820138;-48.89661411;-100.5422167;-137.8191539;-170.5055168;-208.9573559;-229.7863149;-242.7938745;-248.5091499;-251.1341157;-251.4169876;-249.0474602;-244.9975401;-240.2283295;-238.6279059;-236.3200226;-235.6673514;-236.4047603;-239.4942167;-244.6985832;-246.2551067;-248.4260613;-250.9146934;-253.2934252;-255.0000778;-255.0000778;-255.0000778;-255.0000778;-254.994323;-255.0000778;-255.0000778;-254.9988871;-254.7081005;-250.6371678;-240.72885;-220.8060529;-198.850844;-149.6868258;-99.9587255;-63.06051438;-50.17457819;-102.3528952;-147.8076277;-188.6977168
-253.7697199;-253.7868197;-253.6991829;-253.6813093;-253.737885;-253.5974745;-253.5168333;-253.4378116;-253.405276;-253.2452677;-252.9057494;-252.8694474;-253.0227286;-253.1157641;-253.2433105;-253.2900967;-253.3647162;-253.4329111;-253.5382149;-253.7190236;-253.6043441;-253.6165141;-253.6432136;-253.6599036;-253.6817021;-253.6718825;-253.6836661;-253.7182378;-253.7524259;-253.856422;-253.9244883;-253.899697;-253.8019559;-253.7516398;-253.663831;-253.6129807;-253.4783947;-253.4113513;-253.2280451;-253.2028026;-253.2301978;-253.2969496;-253.4891799;-253.5052613;-253.5860913;-253.4895721;-253.4972203;-253.5160487;-253.5809889;-253.5990446;-253.6438026;-253.831054;-253.8707798;-253.9331468;-253.9223238;-253.8477688;-253.9760542;-254.0110994;-253.9071732;-253.9347211;-253.5943342;-253.5256601;-253.5835401;-253.4511418;-253.5486127;-253.314965;-253.3484568;-253.5248755;-253.561366;-253.4919253;-253.4950631;-253.5284064;-253.5215409;-253.6962366;-253.594923;-253.5923716;-253.6359492;-253.6084661;-253.7795471;-253.8060843;-253.8863195;-253.8987133;-253.7088082;-253.7286504;-253.7545875;-253.8225992;-253.854062;-253.7870163;-253.6830769;-253.5590115;-253.4174268;-253.4025324;-253.5095761;-253.4960436;-253.2805031;-253.3321994;-253.4450646;-253.4772182;-253.5103607;-253.5317412;-253.6936831;-253.7431902;-253.6443916;-253.6467477;-253.7068438;-253.7107727;-253.7227564;-253.7264892;-253.7353307;-253.9026481;-253.916224;-253.8638957;-253.7292398;-253.7015401;-253.6553872;-253.5933529;-253.5299757;-253.5480242;-253.3731406;-253.3249528;-253.2554458;-253.2942084;-253.4581995;-253.3030197;-253.4333031;-253.4299709;-253.2891177;-253.3202526;-253.4268348;-253.5552835;-253.5015349;-253.7198095;-253.7388674;-253.7559631;-253.6253478;-253.7994003;-253.837543;-253.8324305;-253.7331694;-253.6716861;-253.5417461;-253.4378116;-253.5386072;-253.5158526;-253.4989854;-253.504869;-253.3848965;-253.591979;-253.6436062;-253.5680374;-253.6041478;-253.6789526;-253.5654866;-253.7671649;-253.8005798;-253.8306608;-253.8723533;-253.9268497;-253.9447579;-253.9544018;-253.9713297;-253.9931818;-254.0179914;-254.0363064;-253.9370826;-253.8047082;-253.6438026;-253.7125407;-253.6549945;-253.3578596;-253.3043904;-253.3606022;-253.3880316;-252.7077761;-252.4077996;-252.7880984;-253.3484568;-253.5027117;-253.3958697;-253.5113414;-253.8515054;-253.9557796;-253.8334136;-253.8890736;-253.9166175;-253.8027423;-253.7331694;-253.8633057;-253.9177981;-253.9116985;-253.9380666;-253.9429866;-253.7720783;-253.6848446;-253.6589218;-253.6072883;-253.5715695;-253.5376264;-253.3811737;-253.3637367;-253.4103714;-253.5717658;-253.5980633;-253.4511418;-253.4023364;-253.5831476;-253.5923716;-253.3643244;-253.3202526;-253.3523745;-253.4887877;-253.5246793;-253.3911668;-253.4711398;-253.5607774;-253.6377161;-253.6826841;-253.7439762;-253.7758126;-253.7349377;-253.6006148;-253.6846482;-253.6445879;-253.4917292;-253.4035122;-253.5305642;-253.355117;-253.5095761;-253.4399678;-253.4260507;-253.5552835;-253.5888389;-253.627311;-253.6253478;-253.4580035;-253.5046729;-253.6862194;-253.7708991;-253.7909476;-253.577849;-253.5941379;-253.7655927;-253.8286945;-253.8475722;-253.8446223;-253.8298743;-253.6328079;-253.4656498;-253.5454737;-253.4605522;-253.3999848;-253.3911668;-253.5129105;-253.5258563;-253.5323297;-253.5639168;-253.5323297;-253.5401767;-253.4538864;-253.4627089;-253.7080225;-253.7327764;-253.6257405;-253.6326116;-253.686023;-253.6987901;-253.6775778;-253.7074331;-253.7258998;-253.7553735;-253.7241316;-253.9079602;-253.8530787;-253.7457447;-253.6438026;-253.4982009;-253.4001808;-253.3429721;-253.5470432;-253.6029701;-253.5908015;-253.6300594;-253.5666639;-253.5749055;-253.6418392;-253.8076571;-253.8343968;-253.8678294;-253.8914342;-253.9211432;-253.8145381;-253.8167008;-253.9372794;-253.8697963;-253.9900317;-254.0024356;-254.0077519;-254.0146438;-253.9030415;-253.8253519
-253.7655927;-253.6343785;-253.7650031;-253.7917339;-253.7534084;-253.7150945;-253.6982008;-253.7416183;-253.7015401;-253.7038973;-253.7052723;-253.879828;-253.9116985;-253.9382634;-254.0061767;-254.0116901;-254.0272471;-254.0558059;-254.1097898;-254.1208259;-254.0601395;-254.1111693;-254.1245704;-254.1046663;-254.1107751;-254.1334396;-254.0715653;-254.1515741;-254.1196434;-254.0300042;-254.038079;-253.9126823;-253.8808115;-253.8912375;-253.9158305;-253.9691644;-254.0199606;-253.9504654;-253.8304641;-253.7952722;-253.851702;-253.8713699;-254.0715653;-254.0820069;-253.94771;-253.9378698;-253.9697549;-253.9624718;-253.976251;-254.1381701;-254.1659653;-254.1537426;-254.082992;-254.1848932;-254.2298582;-254.2379457;-254.0995429;-253.8051014;-253.8806148;-253.8865162;-253.8501287;-253.7854438;-253.7614656;-253.789375;-253.8286945;-253.818077;-253.685041;-253.9006806;-253.9142564;-253.9036318;-253.8973361;-253.8814017;-253.8731401;-253.905009;-253.9246851;-253.9921974;-253.8837622;-253.8874998;-254.005586;-254.0235053;-254.0260654;-254.0587606;-254.1243734;-254.1141253;-253.9766447;-253.9144531;-253.8662559;-253.6752211;-253.6418392;-253.7484957;-253.8318406;-253.8711732;-253.8920244;-253.9758573;-253.9884567;-254.0024356;-253.9961351;-254.0024356;-253.9933787;-253.9227174;-254.0428059;-254.0751114;-254.0957991;-254.1358049;-254.1519684;-254.1566996;-254.1811468;-254.1665568;-254.180161;-254.1825271;-254.1811468;-254.1594595;-254.0485179;-253.954205;-253.8934015;-253.863109;-253.803332;-253.6510674;-253.7697199;-253.8098196;-253.8269248;-253.709594;-253.7080225;-253.7492817;-253.7805298;-254.0229145;-254.0333522;-254.0116901;-254.0105086;-253.9795976;-253.991213;-254.027444;-253.9197658;-253.9246851;-253.9355083;-253.9545986;-254.0950109;-254.0461543;-253.976251;-253.9668023;-253.8774675;-253.7009508;-253.6302557;-253.5552835;-253.5796152;-253.7343483;-253.7728645;-253.7834782;-253.7447622;-253.7970414;-253.6049329;-253.6787562;-253.8163075;-253.8277114;-253.8843523;-253.908944;-253.904222;-253.8896637;-253.8991067;-253.9868817;-254.0443816;-253.965818;-253.992788;-254.0402455;-254.0463512;-254.0018449;-253.9813694;-253.8684195;-253.7469237;-253.711362;-253.6357528;-253.4605522;-253.6015962;-253.6455697;-253.7115584;-253.7573387;-253.8155211;-253.7160768;-253.7351342;-253.7724714;-253.8393128;-253.6245626;-253.6339859;-253.8275147;-253.854652;-253.7249175;-253.803332;-253.8654692;-253.8737302;-253.8979263;-253.9437739;-253.9626686;-253.930195;-253.6549945;-253.567645;-253.4923176;-253.4344792;-253.4348713;-253.6049329;-253.4970242;-253.539392;-253.6392868;-253.6630455;-253.6940759;-253.7074331;-253.7276681;-253.7598934;-253.820633;-253.840886;-253.80864;-253.8218127;-253.8357733;-253.8953688;-253.7950756;-253.9211432;-253.9071732;-253.817094;-253.8224026;-253.855242;-253.7553735;-253.6826841;-253.7219705;-253.653031;-253.6261331;-253.5966894;-253.6216179;-253.6398758;-253.7050759;-253.7504608;-253.7541945;-253.8491454;-253.8644858;-253.8165042;-253.8463922;-253.8869096;-253.844229;-253.9644402;-253.9699518;-254.0646703;-253.9126823;-253.8697963;-253.9729045;-254.0386698;-253.938657;-253.9595193;-254.090282;-254.0820069;-254.0430029;-253.869993;-253.8060843;-253.6243663;-253.5596001;-253.5470432;-253.4699633;-253.6691331;-253.5788302;-253.5937454;-253.7496747;-253.7716853;-253.6883799;-253.6879871;-253.855832;-253.8723533;-253.9176013;-253.9276368;-254.0437907;-254.0227176;-254.0091303;-253.9981039;-254.0258685;-254.0617154;-254.0894939;-254.0571848;-254.0203545;-253.946726;-253.8218127;-253.7860334;-253.738278;-253.7192201;-253.6885763;-253.5603849;-253.7960585;-253.8184703;-253.7451552;-253.7166662;-253.7369025;-253.7799402;-253.6822913;-253.8743203;-253.8924179;-253.9000904;-253.9250787;-253.8227958;-253.9443643;-253.9788102;-253.9839286;-254.0046015;-254.0158253;-253.9115018;-254.0286256
-253.965818;-253.9729045;-253.9754636;-254.02449;-253.9605035;-253.8853359;-253.7994003;-253.7781712;-253.8082469;-253.7848541;-253.7897682;-253.8214195;-253.824762;-253.8141449;-253.7760092;-253.8467855;-253.8660593;-253.9469228;-253.9847161;-253.8627156;-253.9784164;-253.9953475;-254.0063736;-253.9345243;-254.0674282;-254.0977695;-254.1229938;-254.1480259;-254.1484201;-254.1411268;-254.0495027;-253.9577479;-253.9177981;-253.9451515;-253.9048122;-253.7852472;-253.7422078;-253.8499321;-253.8843523;-253.7526224;-253.9345243;-253.9675896;-253.9510559;-253.9756604;-253.9910161;-254.0148407;-254.0357156;-253.9423962;-254.0560029;-254.0666403;-254.0869325;-254.0973754;-254.1204317;-254.146646;-254.1815412;-254.1894284;-254.2008658;-254.1651767;-254.0242931;-253.9886536;-253.9174046;-253.9052057;-253.9209464;-253.9457419;-253.9727076;-253.9630623;-253.8837622;-253.8579954;-253.9500718;-253.9953475;-254.0861444;-254.1147165;-254.1176726;-254.1216142;-254.1673454;-254.162811;-254.1770062;-254.1537426;-254.1545311;-254.1963301;-254.2353813;-254.1547282;-254.1387615;-254.186865;-254.0875236;-253.9496782;-253.8855326;-253.8432458;-253.8060843;-253.7681476;-253.7946824;-253.8389195;-253.8355766;-253.8220093;-253.844819;-253.8912375;-253.9290143;-253.9752667;-253.9967257;-253.8772708;-253.8678294;-253.9908192;-254.0524573;-254.0737323;-254.0780666;-254.0957991;-254.0896909;-254.1032869;-254.0595486;-254.0329583;-254.0961932;-254.0416242;-253.9967257;-253.9620781;-253.9177981;-253.8800247;-253.8674361;-253.8762873;-253.7944859;-253.9166175;-253.9437739;-253.9593225;-254.0026325;-254.0288225;-253.9986946;-254.0172037;-254.0538361;-254.0540331;-254.0130685;-254.1527569;-254.1701056;-254.1446748;-254.1454633;-254.1762176;-254.1914003;-254.1736544;-254.1042722;-254.1417181;-254.099937;-254.0469421;-253.9553859;-253.9237012;-253.8796313;-253.8542587;-253.7559631;-253.760483;-253.8935982;-253.7803333;-253.7636274;-253.9496782;-254.0146438;-254.0124778;-254.011887;-254.0695952;-254.0843712;-254.0768845;-254.0757024;-254.0701862;-254.0623064;-254.0745204;-254.0762934;-254.0782636;-254.0822039;-254.0843712;-254.0914642;-254.0307919;-253.9693612;-253.9427898;-253.9315725;-253.8721567;-253.7319905;-253.7809229;-253.7990072;-253.8300709;-253.8241721;-253.7630378;-253.8808115;-253.9115018;-253.820633;-253.8229924;-253.9754636;-253.9935756;-254.0109025;-254.0621094;-254.0699892;-254.0731413;-254.0782636;-254.0703832;-254.0768845;-254.0670342;-254.0798397;-254.0764905;-254.0353217;-253.9717234;-253.8993035;-253.8751071;-253.8579954;-253.8355766;-253.8400994;-253.8253519;-253.8581921;-253.8587821;-253.8837622;-253.8753038;-253.8871064;-253.8827786;-253.909731;-253.9242916;-253.9488909;-253.9697549;-254.0018449;-253.8827786;-253.8985165;-253.9144531;-254.0006635;-254.0416242;-254.0524573;-254.0650643;-254.0489118;-253.9811725;-253.8019559;-253.8507187;-253.851112;-253.804315;-253.7074331;-253.7840678;-253.8235823;-253.8406893;-253.8400994;-253.7809229;-253.8355766;-253.8796313;-253.8859261;-253.9109115;-253.9343275;-253.9713297;-254.0081457;-254.0128716;-253.9792039;-253.9821568;-253.9839286;-253.884549;-253.9943631;-254.0073581;-254.0565938;-254.0717623;-254.0621094;-253.9760542;-253.939641;-253.8601588;-253.8182736;-253.6277036;-253.6157289;-253.8060843;-253.8328237;-253.8133585;-253.8121788;-253.7614656;-253.8562254;-253.8690096;-253.7701129;-253.7638239;-253.9154369;-253.941609;-253.9197658;-253.9331468;-253.9490877;-253.9843224;-254.0087365;-254.0026325;-253.9959382;-253.9923943;-253.9910161;-253.9492845;-253.9557796;-253.8819918;-253.8141449;-253.7852472;-253.8438357;-253.8172906;-253.6074846;-253.5947267;-253.7029151;-253.7394569;-253.7707026;-253.8023491;-253.8267282;-253.8656659;-253.8886801;-253.8979263;-253.903435;-253.908944;-253.9203561;-253.9323596;-253.9412154;-253.8577987;-253.95204;-253.9565669;-253.8833688;-253.869993
-254.9705127;-255.0000778;-255.0000778;-255.0000778;-255.0000778;-255.0000778;-255.0000778;-255.0000778;-255.0000778;-255.0000778;-255.0000778;-254.8344824;-245.2283856;-207.3074828;-160.6553889;-132.3318218;-127.9433671;-125.7507068;-125.7317436;-114.2831035;-108.2243504;-106.0859475;-104.5386765;-103.4195979;-102.0169892;-102.2207359;-102.6974898;-104.9842782;-108.0566101;-112.0135919;-115.7879709;-124.9560021;-162.7213352;-218.4934243;-236.26294;-236.553411;-225.3326832;-225.8263714;-192.7132773;-198.9880256;-206.4010986;-210.5028504;-220.3273812;-234.7387907;-238.0468059;-239.9298231;-241.7622146;-237.8532738;-229.9546716;-236.5392376;-238.5801253;-239.651687;-238.8679669;-238.2640399;-236.6273792;-238.1758869;-242.5146266;-244.179435;-245.0985159;-246.9685733;-249.2029642;-247.8979327;-248.5956889;-245.3027374;-249.6198605;-250.0667771;-250.8432381;-253.3039988;-252.9440145;-240.4511532;-186.7994735;-116.4496555;-116.6638421;-105.1490866;-127.2033091;-126.0535398;-120.1995561;-111.3223534;-108.1500165;-107.9975966;-110.3129309;-115.8794489;-124.0136098;-141.1413119;-208.5845128;-237.9256387;-236.2035011;-218.6231684;-214.077348;-172.5048342;-185.7408063;-193.7800203;-199.3276865;-212.3527102;-217.3036495;-219.6962992;-222.5545791;-231.4923403;-236.8468226;-238.9223085;-236.2907111;-235.1246878;-236.5546064;-238.4131306;-240.0598996;-241.8583984;-245.567649;-246.1400475;-245.2540824;-243.4787132;-240.361022;-238.159095;-236.9874596;-237.2417488;-236.2809989;-240.0103133;-238.068425;-241.9753852;-242.199494;-245.6679902;-251.958877;-252.5893355;-249.757042;-224.950588;-170.0192813;-112.28043;-69.77168071;-125.1433628;-134.0151541;-133.3567757;-128.6670219;-117.477456;-112.0099926;-111.8520428;-119.406999;-137.1606773;-190.3822868;-236.4796596;-229.6381589;-226.6823383;-208.3445929;-227.5680492;-242.4003456;-250.2216463;-254.8180338;-254.9998794;-254.9996809;-255.0000778;-254.9998794;-254.2361703;-250.0818545;-241.2485109;-228.9754142;-220.4550118;-219.7917924;-226.8092759;-237.0548394;-245.6681744;-250.277645;-251.2930082;-250.8541843;-249.7701782;-246.9434465;-243.6751692;-242.0951683;-243.4076326;-246.6681321;-249.4034548;-251.5306624;-253.3982212;-254.989759;-255.0000778;-254.9988871;-250.6511637;-221.0934501;-175.4949738;-148.1948156;-133.4860735;-143.8458246;-140.4096807;-135.1729316;-130.3988972;-120.4736441;-116.2466457;-115.9949237;-116.2652481;-121.902765;-128.174988;-139.1836896;-164.9122065;-219.8830896;-244.1275868;-241.9998685;-239.0469347;-217.6158095;-228.1335201;-242.5358082;-248.5351618;-253.4987893;-254.9504758;-254.9998794;-255.0000778;-255.0000778;-254.9808299;-254.8644125;-254.4491917;-253.8914342;-252.1752782;-248.1808879;-243.0652917;-237.7970013;-232.2204347;-227.4554176;-225.1012602;-224.0995019;-226.4700475;-234.0949797;-240.9380754;-243.4320449;-245.0037685;-244.6359205;-244.9070808;-246.00053;-249.0323179;-252.5936193;-254.9036692;-254.8485546;-245.6453372;-200.1728841;-151.7522576;-125.115457;-114.532727;-134.7791714;-132.6322649;-127.1664321;-120.7959475;-113.2897558;-111.2085543;-111.3093825;-112.7211456;-116.1474644;-125.3374226;-159.3579189;-230.9428292;-232.8231881;-226.7758409;-209.5781574;-220.839239;-238.6849202;-248.0993336;-252.8571539;-254.9996809;-255.0000778;-255.0000778;-255.0000778;-255.0000778;-255.0000778;-254.9998794;-254.7908883;-253.7082189;-252.4221884;-252.3737785;-252.6931598;-253.0889801;-253.0709969;-253.5056535;-253.9540082;-253.6010074;-251.9338869;-250.1744586;-249.3782098;-248.5922941;-248.5066998;-249.1233886;-250.0604794;-251.4455414;-253.2174779;-254.7669179;-255.0000778;-255.0000778;-255.0000778;-255.0000778;-255.0000778;-253.7080225;-237.7461028;-205.5366365;-173.7923455;-143.4182002;-129.3493609;-116.0604547;-114.943819;-108.1990133;-109.1847183;-110.6785347;-116.4294633;-125.9713019;-148.664191;-183.4959487;-237.8234081;-244.6726373
-252.8298393;-252.8930621;-253.0006524;-253.0672833;-252.6933547;-253.5158526;-253.1730659;-253.5454737;-253.1785431;-253.2278494;-253.613177;-253.6547982;-253.7056652;-253.4636892;-253.8804181;-253.6153363;-253.6491039;-253.6591181;-253.9008774;-253.4076277;-252.8109176;-253.19302;-253.2566203;-253.6547982;-253.7585178;-253.8361666;-253.62417;-253.9835349;-253.9673928;-253.6667766;-253.6237773;-253.6608854;-253.9412154;-253.9693612;-253.9614876;-253.7260963;-253.4076277;-254.0975725;-254.4485989;-254.2821401;-254.3188489;-253.6137659;-253.2073028;-253.3678508;-252.9268328;-252.9678384;-253.4664341;-253.5209524;-253.5488089;-253.2577947;-253.6324153;-253.6473368;-253.2466378;-253.2832441;-253.3049779;-253.732187;-253.4378116;-253.8245654;-253.8878932;-253.9298014;-254.0256716;-253.6620636;-253.7172555;-253.717452;-253.2828525;-253.1435317;-253.441536;-253.4703555;-253.7994003;-253.5505747;-253.5317412;-253.5158526;-253.7606795;-253.077838;-253.0768607;-253.4664341;-253.431735;-253.6693295;-253.6371271;-253.2323506;-253.2063245;-253.1638724;-253.5601887;-253.5319373;-253.4764339;-253.295579;-252.7034885;-252.7106996;-253.1855857;-253.2642545;-252.9235139;-253.3188817;-253.2714976;-252.3881634;-252.3947732;-252.917462;-253.0518437;-253.0649379;-253.1703273;-253.1826513;-253.2454635;-253.6204401;-253.6275073;-253.2080855;-253.0799882;-252.867496;-252.6966676;-253.0835067;-253.1095075;-253.498397;-252.8833034;-252.4649757;-253.3200567;-253.3018449;-252.9104343;-252.920976;-252.9629561;-252.9592457;-253.018821;-253.4027284;-253.4199748;-253.4042961;-253.4015526;-252.8840841;-252.7411076;-252.5500098;-252.4396905;-252.6154297;-253.21376;-253.0375784;-253.531545;-253.1355137;-253.1192836;-253.1388382;-253.1799125;-253.177565;-253.2045635;-253.5721582;-253.6204401;-253.2969496;-253.3321994;-253.3147691;-253.1988894;-253.0405095;-252.927809;-252.9623702;-253.0070991;-253.128865;-253.1936069;-253.2476165;-253.259165;-252.8415448;-253.6881835;-253.6993794;-253.4246787;-253.7585178;-253.4780026;-253.5156564;-253.2850061;-253.6862194;-253.6907368;-253.7777781;-253.2781538;-253.0913259;-252.9826818;-253.0657197;-253.5421385;-253.5878576;-253.3308284;-253.3809778;-253.4205627;-253.4601601;-253.5335067;-253.5855026;-253.2781538;-253.8141449;-253.8119822;-253.5199717;-253.5519481;-253.9146499;-253.809623;-253.4785908;-253.4883955;-253.5174217;-253.7272751;-253.1245631;-253.501731;-253.5266409;-253.5344876;-253.5617584;-253.232742;-253.2350905;-253.236069;-253.6506747;-253.6960401;-253.7023258;-253.724721;-253.4629049;-253.4868267;-253.1452918;-253.6125881;-253.432323;-253.7040937;-253.3782347;-253.6944688;-253.6491039;-253.1996721;-253.1480298;-253.1632856;-253.1671976;-253.1953677;-253.5185986;-253.5495937;-253.1830425;-253.1871508;-253.1636768;-253.1478343;-253.1153731;-253.1141999;-253.1405982;-253.5289949;-253.5741205;-253.1752176;-253.2206088;-253.6589218;-253.6251515;-253.2080855;-253.3298491;-252.9280042;-253.344735;-253.0141321;-253.0362106;-253.0786199;-253.1042287;-253.1519414;-253.1306249;-253.126714;-252.7387682;-253.1998677;-253.2300021;-253.6414465;-253.6606891;-253.6807201;-253.7192201;-253.7145052;-253.3717692;-253.3572719;-253.5972782;-253.4623168;-253.0835067;-253.0815519;-253.0749061;-253.114591;-253.529191;-253.1449007;-253.1517458;-253.1560486;-253.1171328;-253.516441;-253.5752979;-253.2487908;-253.2846145;-253.31849;-253.7260963;-253.7345447;-253.7465307;-253.7765988;-253.7762057;-253.7583213;-253.3190775;-253.2667993;-253.4954553;-253.50938;-253.139816;-253.1382515;-253.1030557;-253.0557523;-253.0045594;-252.9485056;-252.9455766;-252.9467482;-252.9817052;-253.414487;-253.4227187;-253.0305441;-253.0854614;-253.0989501;-253.070606;-253.0666969;-253.4219347;-253.4338912;-253.3527663;-253.3284781;-252.8776437;-252.4373568;-253.3363125;-252.9075063;-252.9416714;-253.30067;-253.2783496
-253.1894984;-253.2934252;-253.6889691;-253.3952818;-253.4548667;-253.8497354;-253.9807788;-253.6948616;-253.7076296;-253.8237789;-253.6443916;-253.5798114;-253.6320226;-253.7376885;-253.4976126;-253.1761957;-253.8770741;-253.893008;-254.01425;-254.0611245;-253.5692148;-253.2286322;-253.6712933;-253.7050759;-253.7677545;-253.7636274;-253.7846575;-253.6826841;-253.1050107;-252.8604711;-252.7955093;-252.3506493;-253.0657197;-252.8495442;-253.6954509;-253.3641285;-253.7038973;-253.7595004;-253.7408323;-253.7404393;-253.3764713;-253.7133265;-253.3633449;-253.7237387;-253.4042961;-253.6877907;-253.4186028;-253.1347315;-253.0973861;-253.1648504;-253.0795972;-253.3206442;-253.5454737;-253.7353307;-253.8491454;-253.9502686;-254.2401156;-254.2495847;-253.9496782;-253.9266529;-253.8873031;-253.8839589;-253.8318406;-253.9827474;-253.7361166;-253.2848103;-253.1036422;-253.0117877;-253.015695;-253.1740439;-252.9936201;-253.0356244;-253.4778065;-253.4952592;-253.4797673;-253.5144796;-253.8031355;-253.5951193;-253.2908798;-253.7484957;-253.7657892;-253.4170349;-253.4731005;-253.4901604;-252.9602221;-253.4356553;-252.8909151;-252.8497393;-252.9123864;-253.0733424;-253.5452775;-253.2564245;-253.8617322;-253.8823852;-253.6834697;-253.3925384;-253.4125272;-253.1709141;-253.5837363;-253.6341822;-254.0063736;-254.054624;-253.800973;-253.8108026;-253.7048794;-253.5276217;-253.1499856;-253.4235027;-253.414291;-253.4678066;-253.6652056;-253.3741202;-253.3848965;-253.4576114;-253.501731;-253.5876614;-253.908157;-253.6302557;-253.9766447;-254.0120839;-253.7541945;-254.0627004;-253.8155211;-253.7386709;-253.7406358;-253.9774322;-253.4039042;-253.1578089;-252.9811193;-253.3384671;-253.5474356;-253.2971455;-253.7441727;-253.8155211;-253.8064775;-253.4740809;-253.8363632;-253.4968281;-253.863699;-253.546847;-253.925669;-253.9339339;-253.6824877;-253.7327764;-253.7337588;-253.9142564;-253.5368416;-252.974674;-252.9570976;-253.4680026;-253.3010616;-253.4301669;-253.8182736;-253.4862384;-254.027444;-254.0103117;-253.532722;-253.9138629;-253.9640465;-253.9827474;-254.0319736;-253.7883922;-253.8318406;-254.1561082;-254.0950109;-254.030595;-253.7583213;-253.6355565;-253.5433156;-253.565879;-253.2752172;-253.3796062;-253.4015526;-253.4264428;-253.8052979;-253.7624482;-253.7750265;-253.76009;-253.8135551;-253.5346837;-253.6237773;-254.0063736;-254.0755054;-253.6934867;-253.7154874;-253.7514433;-253.5095761;-253.2237398;-253.0014338;-253.0102248;-253.4989854;-253.6709006;-253.4778065;-253.5168333;-253.8975329;-253.5115375;-253.5052613;-253.529191;-253.6139622;-253.9530241;-254.0199606;-253.7628413;-253.784461;-253.8092298;-254.1492086;-254.1239792;-253.5880539;-253.2284365;-252.9621749;-252.9777989;-253.0057316;-253.1769782;-253.7211847;-253.4158589;-253.4862384;-253.5025155;-253.5168333;-253.8530787;-253.5847176;-253.6326116;-253.3459103;-254.095602;-253.8556353;-253.7712922;-253.7628413;-253.6842553;-254.0213391;-253.7406358;-253.0352336;-253.0835067;-253.2063245;-253.6787562;-253.803332;-253.8196499;-253.8635024;-253.8355766;-253.5633282;-253.958732;-253.7139158;-254.0987547;-253.8861228;-253.9778259;-254.1024987;-254.1056516;-253.851702;-253.9018611;-253.6763994;-253.3139858;-253.0391416;-253.4450646;-253.4509458;-253.2711061;-253.4219347;-253.8031355;-253.5129105;-253.7756161;-253.4478091;-253.8137517;-253.8461956;-253.5696072;-254.1588681;-254.1837101;-253.5527329;-253.5809889;-253.89891;-253.8068707;-252.7855631;-253.4783947;-253.5148719;-253.3253445;-253.5199717;-253.6084661;-253.6422319;-253.2748256;-253.3053695;-253.3039988;-253.3369001;-253.3952818;-253.812572;-253.8869096;-253.9014676;-253.6438026;-253.5623471;-253.5101645;-252.8224263;-252.7336998;-252.724928;-252.5449489;-253.0923033;-253.154484;-253.5466508;-253.540569;-253.6017925;-253.8829753;-253.9666054;-253.4850618;-253.5454737;-253.5976707;-253.6465514;-253.6359492
-253.5184025;-253.5574418;-253.6689368;-253.8039218;-253.8629123;-253.8827786;-253.5994372;-253.6231884;-253.61514;-253.3002784;-254.0335491;-254.0672312;-254.0959961;-254.1409297;-254.19002;-254.2006686;-253.8983198;-254.0170068;-253.3756876;-253.565879;-253.5592077;-253.6125881;-253.7650031;-253.8619289;-253.5882501;-253.6090549;-253.5804002;-253.5588152;-253.9067797;-253.946726;-253.7638239;-253.8393128;-254.1797666;-253.9307853;-253.9679833;-253.8835655;-253.6112141;-253.8831721;-253.8084434;-253.5154603;-253.6243663;-253.4029243;-253.8220093;-253.8021525;-253.7815126;-253.7803333;-253.7925201;-253.792127;-253.8182736;-253.8607489;-253.8993035;-253.6522455;-253.6718825;-253.9018611;-253.6275073;-253.0041687;-252.9610032;-253.6993794;-254.0879177;-253.965818;-253.8066741;-253.8137517;-253.8243688;-253.8222059;-253.8117856;-253.8560287;-253.9012709;-253.9689675;-254.0300042;-254.1017105;-254.1356078;-254.2770096;-254.0946168;-253.2861808;-253.2675823;-253.3102651;-253.4511418;-254.0845682;-253.8717633;-253.8605522;-253.8465889;-254.1708942;-254.1898228;-253.7245246;-253.8642891;-254.2424828;-254.3050325;-254.3297057;-254.0695952;-253.9142564;-253.5240909;-253.2713018;-253.889467;-253.9390506;-253.7793505;-253.8041184;-253.5707846;-254.0812188;-254.0575787;-254.0343369;-254.0514724;-253.824762;-253.8458023;-253.8782543;-253.9048122;-253.9465292;-254.0534422;-253.8755005;-253.4456527;-253.4719241;-253.1212389;-253.1482254;-253.6280962;-253.6361455;-253.7347412;-253.8082469;-253.904222;-253.9799913;-254.0940257;-254.3541863;-254.4446472;-254.4169886;-254.4721142;-254.4410908;-253.7038973;-253.5482204;-253.9929849;-254.0049953;-253.4242867;-253.4668262;-253.8804181;-253.8688129;-253.9538114;-253.9884567;-254.0325644;-254.2555032;-254.2815481;-254.0806278;-254.0674282;-253.9091407;-253.2376347;-253.4670223;-252.9451861;-253.0164765;-253.4527102;-253.6051292;-253.6693295;-253.3915587;-253.0754924;-253.1983025;-253.9666054;-254.0175976;-254.0597456;-253.8001867;-253.8520953;-253.844819;-253.6634382;-253.7742403;-253.6889691;-253.6970223;-253.6913261;-253.529191;-253.8821885;-253.977629;-254.0248838;-254.0109025;-254.0307919;-254.0152346;-253.7822988;-254.1170814;-254.1632052;-254.4015814;-254.3352332;-253.8963525;-253.7496747;-253.6958437;-253.3739243;-254.0400485;-253.5140873;-253.5970819;-254.1499971;-254.1835129;-253.899697;-253.9107147;-254.1184609;-254.1848932;-253.6606891;-253.7500678;-253.8591754;-254.2728659;-254.0950109;-253.6169067;-253.5080071;-253.4082156;-253.2016286;-253.3096776;-253.3511992;-253.0659151;-253.5442965;-253.3073277;-253.7630378;-253.8269248;-254.1876537;-254.2121069;-254.0067674;-254.0091303;-253.991213;-253.8607489;-253.6465514;-253.7526224;-253.6773814;-253.627311;-253.7182378;-253.7878025;-253.8483588;-253.6137659;-253.6414465;-253.6524419;-254.0349278;-254.0946168;-253.8874998;-253.9404282;-254.2334087;-254.2647762;-254.2817454;-254.0887058;-254.0361095;-254.193175;-254.0061767;-253.6434099;-253.6469441;-253.3564883;-253.824762;-253.8607489;-254.1245704;-254.170697;-253.9439707;-254.0095241;-253.7628413;-253.4887877;-254.1338338;-253.8892703;-253.9315725;-254.2239408;-254.2302527;-254.4448448;-254.4351636;-254.2667492;-254.0749144;-253.6602963;-253.6473368;-253.6434099;-253.6699187;-253.7636274;-253.8479655;-253.8562254;-253.5519481;-253.6098401;-253.9451515;-253.9847161;-254.0177945;-254.0662463;-253.8420659;-253.908157;-253.6500857;-254.4855535;-254.5088779;-254.2608302;-254.1738516;-253.9327532;-253.3116359;-253.172479;-253.5472394;-253.5988484;-253.6875943;-253.8271215;-253.9512527;-254.0749144;-253.8922211;-254.0006635;-254.3482631;-254.4110625;-254.4616405;-254.3784741;-254.3820288;-254.1476316;-254.0579727;-254.0599425;-254.1058486;-254.1356078;-253.4958475;-253.8084434;-253.7455482;-253.4762378;-253.6163178;-253.6962366;-253.3848965;-253.4121352;-253.8373464;-253.8876965
-205.7712922;-185.259418;-153.38618;-115.6854043;-103.3840636;-105.129857;-107.672066;-107.8427662;-115.5332186;-152.5895329;-224.5123928;-243.6436425;-246.2950881;-231.1357089;-239.9806064;-242.858117;-237.2771386;-216.2126138;-214.7800843;-226.1530583;-236.685322;-239.0117124;-227.1488922;-204.4407065;-206.4935793;-213.0261454;-228.659994;-248.2762279;-252.9094583;-253.355117;-253.359035;-251.2459937;-245.999976;-233.7276228;-209.1137793;-184.1604169;-147.4825746;-124.5096296;-122.0039825;-117.8882366;-143.1337766;-211.2131785;-247.3294727;-252.7413025;-253.0967997;-253.8756972;-251.1828214;-242.8401185;-221.6599978;-210.0653397;-207.7699243;-219.0601812;-224.1533111;-208.3088313;-182.908211;-167.8936614;-191.3212652;-216.5330916;-230.4788942;-243.7487633;-244.8576677;-239.5066457;-221.5923923;-192.6164196;-164.1321613;-142.5915659;-139.0870352;-143.5430384;-147.336813;-153.8804;-186.8141704;-224.5622451;-244.4450247;-252.1143536;-252.6370491;-250.6450283;-245.6385237;-238.611919;-225.8081633;-196.2196856;-175.481158;-161.0703879;-166.4175508;-180.7559235;-191.4942359;-214.7767055;-235.6487082;-246.9025102;-249.6586594;-249.6892886;-246.3015678;-230.0277996;-198.4691581;-173.7479274;-167.4576105;-165.8925655;-158.6376345;-154.879408;-153.1494561;-181.5374421;-207.9660115;-224.7817661;-234.5249129;-249.7313446;-250.2755422;-245.3117361;-213.3233509;-200.9933428;-200.8131317;-211.222573;-227.363878;-233.3680652;-236.3999847;-229.1818501;-232.6418521;-246.2184685;-252.5206208;-239.1624388;-220.3985159;-203.1142491;-184.9240117;-172.2533665;-154.0405619;-143.7716643;-149.0611065;-155.1783009;-162.4891833;-164.6534925;-164.2303847;-166.4327658;-178.3461331;-214.0481205;-245.0856831;-254.678603;-255.0000778;-255.0000778;-255.0000778;-254.9957121;-254.1525598;-242.0526049;-218.6894119;-198.985488;-178.8966683;-170.9790162;-179.3485608;-203.1287292;-226.9681086;-244.0628529;-249.2518717;-248.8685205;-244.2345821;-231.5978748;-200.5541604;-178.4467557;-178.1818459;-177.778043;-175.9037568;-174.207488;-171.6273988;-177.3342122;-202.9754704;-224.0153906;-249.6017965;-251.7501967;-250.7512896;-234.9576077;-211.0658351;-204.9840008;-203.6653169;-204.4511665;-216.218606;-223.5983732;-235.001083;-243.1765912;-251.5762383;-239.3965806;-241.8517934;-243.1349096;-241.8869649;-235.7826658;-220.0469951;-209.7936573;-199.483985;-194.8847149;-195.2758815;-187.9138052;-205.5036366;-233.3758771;-247.5982209;-254.5794703;-254.6704875;-249.0652547;-237.5017486;-215.0637144;-195.6391813;-185.8443619;-185.9900406;-192.5858531;-201.5679076;-220.7690095;-246.0993771;-255.0000778;-255.0000778;-254.9961089;-249.2992809;-237.9429161;-223.6759112;-191.9746432;-174.1519348;-162.8968769;-159.4512855;-163.8701501;-170.8686366;-182.9171963;-198.3367724;-218.6980236;-234.9480048;-247.1783483;-247.2760916;-241.572926;-222.9774192;-215.6248561;-213.2934958;-214.4783875;-219.2802239;-223.8118852;-235.7053248;-242.3415428;-250.5059123;-253.6253478;-254.7288914;-254.0658523;-249.610543;-236.7102855;-207.8890886;-183.8929384;-179.8755852;-178.2517328;-177.263892;-177.6142226;-186.4368301;-213.6805923;-238.6140041;-252.5757064;-254.9998794;-254.189034;-244.1719748;-229.1619751;-211.708001;-206.6671881;-205.7535905;-210.7283882;-217.634744;-228.0804821;-238.2241984;-242.8271612;-250.095025;-253.7088082;-254.627543;-252.2851723;-236.8172091;-185.9025638;-157.5464545;-142.140889;-138.0469934;-138.6947699;-139.3625822;-149.3587742;-176.9643382;-206.350146;-231.6722157;-244.5767584;-250.8610981;-252.9887368;-252.4186882;-246.4742382;-235.7409361;-212.5135711;-200.2961011;-200.8975923;-215.8839799;-229.9570923;-243.9874339;-251.8837278;-254.5191579;-254.9427396;-253.6371271;-244.3491418;-210.2547222;-181.5018451;-165.0435313;-154.4278718;-151.7766488;-157.6236054;-161.6873873;-163.2809876;-180.089223;-213.9705455;-237.8853922;-251.3516084
-251.9600395;-251.820815;-251.6365167;-251.6042487;-251.600578;-251.6655069;-251.9861976;-251.9067714;-251.7312429;-251.7805674;-251.8635923;-252.023991;-252.0154623;-251.9869727;-251.976315;-251.9867789;-251.9470594;-251.9509339;-251.8804362;-251.8659154;-251.8798553;-251.9555835;-252.0272864;-252.0996119;-252.0393054;-251.988523;-251.8765638;-251.8839214;-251.912775;-251.9602332;-251.9995693;-251.9292381;-251.9292381;-251.8140417;-251.7351108;-251.672079;-251.6836775;-251.7691533;-251.5285385;-251.6054079;-251.7730224;-251.7246677;-251.566581;-251.6088855;-251.5936234;-251.5969075;-251.5775904;-251.6657002;-251.65391;-251.4015558;-251.2725817;-251.2026556;-251.4042562;-251.6166139;-251.8064947;-251.8153963;-251.7548389;-251.7198333;-251.5107763;-251.571989;-251.6716924;-251.7140322;-251.7171261;-251.7590944;-251.7225406;-251.556152;-251.4521019;-251.387476;-250.8718538;-250.9310263;-251.0240682;-251.4459273;-251.7689599;-251.8194603;-251.8494606;-251.8835341;-251.8283629;-252.8762776;-252.845642;-252.8860357;-251.4507512;-251.2883831;-251.1570224;-251.285107;-252.581742;-252.7296062;-252.8842792;-251.5306624;-251.4839448;-251.3184497;-252.5058316;-252.5737595;-252.6278945;-252.5124476;-252.493768;-252.5303515;-252.4894876;-252.4369678;-252.1937167;-252.1764427;-252.1582009;-252.3044038;-252.3634767;-252.3873858;-252.285755;-252.0935994;-252.1073705;-251.9999569;-252.0703277;-252.1364693;-252.2092459;-252.3726122;-252.39419;-252.4371623;-252.4336617;-252.3887466;-252.2863377;-252.3415155;-252.3160608;-252.3654204;-252.3296619;-252.4009946;-252.3104264;-252.2760431;-252.3341311;-252.3626993;-252.3877746;-252.4599182;-252.5266538;-252.447081;-252.4499985;-252.4573896;-252.4023556;-252.3424871;-252.226136;-252.2096341;-252.0707155;-252.1946872;-252.3897186;-252.3632824;-252.455639;-252.3216953;-252.0583056;-252.190417;-252.2762374;-252.331605;-252.3994392;-252.4274388;-252.5398883;-252.4787874;-252.1968224;-252.0625714;-252.0782784;-252.1151295;-252.2144874;-252.3617275;-252.5161449;-252.5229561;-252.4323004;-252.4118827;-252.3347141;-252.3253871;-252.376111;-252.3661979;-252.313535;-252.3656148;-252.453305;-252.2601173;-252.1401557;-252.0602446;-252.0550095;-252.0728486;-252.2426401;-252.3011012;-252.3290789;-252.266332;-252.2970217;-252.370474;-252.421605;-252.370474;-252.3265529;-252.3011012;-252.2787624;-252.2634188;-252.2016751;-251.993174;-251.8843086;-251.973796;-252.0784723;-252.1725612;-252.301684;-252.4692552;-252.4745075;-252.3825259;-252.3531758;-252.2313782;-252.2758489;-252.312175;-252.351038;-252.3772773;-252.452527;-252.3871914;-252.2391449;-252.275072;-252.2606999;-252.324027;-252.3558968;-252.4678935;-252.514199;-252.5568228;-252.49513;-252.4000225;-252.4062441;-252.2923595;-252.3527871;-252.3143122;-252.385053;-252.4000225;-252.2958561;-252.1378274;-252.0429889;-252.1550961;-252.2024516;-252.247883;-252.3893298;-252.4704224;-252.3893298;-252.363088;-252.3189752;-252.3331596;-252.401189;-252.4241329;-252.3685303;-252.4227717;-252.4280222;-252.2902227;-252.067419;-252.0057712;-252.0970905;-252.2251652;-252.2711875;-252.37961;-252.3104264;-252.3257757;-252.2065281;-252.1647987;-252.1570366;-252.1058187;-252.1188152;-252.1504392;-252.1613057;-252.0309695;-251.8560423;-251.8231374;-251.8620435;-251.9292381;-251.9052221;-252.1983752;-252.0575301;-251.8982505;-251.7950783;-251.8459764;-251.9019299;-252.0106166;-251.8666898;-251.7902411;-251.7515506;-251.5739205;-251.4553823;-251.6013508;-251.7418799;-251.8109454;-251.8682386;-251.8359112;-251.865141;-251.833008;-251.7076513;-251.9321435;-251.8072687;-251.876951;-251.8610756;-251.8846959;-251.760255;-251.6001917;-251.4978425;-251.5903393;-251.8455892;-251.9174232;-251.8426857;-252.0282556;-251.9429912;-251.6602882;-251.6253089;-251.8117195;-251.9042538;-251.9767025;-251.910451;-251.7030109;-251.6378694;-251.5399307
-252.1531557;-251.1196809;-250.8109813;-250.691051;-250.7626116;-250.8664758;-251.1019765;-251.0640743;-250.7497545;-249.4752318;-249.2452358;-249.4830196;-250.8440062;-251.7643172;-252.004996;-252.2344849;-251.9058031;-250.0156417;-249.7576131;-249.8408329;-251.3140164;-251.6312991;-252.1566485;-251.9083207;-250.8330609;-249.6377369;-249.7859816;-250.7950479;-252.0988361;-252.739353;-252.8813517;-252.3881634;-251.3838116;-251.0725388;-251.0159916;-250.9804222;-251.0761941;-251.1639529;-251.0386843;-249.8475005;-249.3926349;-249.3051609;-250.2420934;-251.7683795;-252.5737595;-252.6935496;-252.3042096;-251.557697;-251.1737719;-250.8837629;-250.8284527;-250.8034943;-250.9027814;-250.9354462;-250.2113284;-249.6107331;-249.5713788;-250.2306273;-251.3421612;-252.1391856;-252.3916627;-252.6615945;-252.1516034;-250.2994396;-249.9839788;-249.996376;-251.29455;-251.54051;-252.0365913;-252.0666434;-250.9335245;-250.625282;-250.5902066;-250.9462082;-251.866109;-252.0827387;-252.5556548;-252.579795;-251.8783063;-251.7732159;-251.7312429;-251.7424601;-251.8175251;-251.9939491;-251.9381484;-251.6767183;-251.006185;-250.9798455;-251.3957694;-252.0586934;-252.4019667;-252.534244;-252.6810783;-251.4449625;-251.3570072;-251.0669599;-251.080619;-251.1706914;-251.1606801;-251.3685767;-251.1510547;-251.070615;-250.9033578;-250.8248046;-251.2090109;-251.4762246;-251.5849305;-251.7784393;-251.7974002;-251.8481056;-252.0957328;-252.1845942;-251.8678514;-251.7374316;-251.6954705;-251.3386909;-250.4055995;-250.2201176;-250.6189562;-251.1522097;-251.4700488;-251.5930438;-251.6438602;-251.7142256;-251.7739897;-251.82875;-251.7552257;-251.7855977;-251.6906372;-251.4459273;-250.5137646;-249.9422189;-249.846167;-250.7386256;-252.2473004;-252.8836937;-252.9430382;-251.6809711;-251.8150093;-251.699724;-251.5855101;-251.6280141;-251.5961347;-251.5069153;-251.4451555;-250.7998469;-249.9403124;-250.0660137;-250.4220575;-250.5371329;-250.8847233;-250.9792688;-250.898939;-250.7771973;-250.5743013;-250.4919326;-250.4867624;-250.4488543;-250.5354089;-250.5944228;-249.956328;-249.5187358;-249.7979783;-250.7543599;-252.2496307;-252.446692;-252.5083612;-251.2506173;-251.097166;-251.0000322;-250.9093137;-250.9095058;-250.919497;-251.457698;-251.4279839;-250.7954318;-250.6904756;-251.1477822;-252.6479575;-253.0285901;-253.1873464;-252.158783;-251.5849305;-251.4899284;-251.2373248;-251.0427233;-250.6289243;-250.4205264;-250.1830543;-249.3696694;-248.730425;-249.0175559;-249.8179753;-251.4301061;-251.7057178;-252.0947631;-250.8376694;-251.0421463;-250.7205912;-250.6024723;-250.6130141;-250.683763;-250.6444531;-250.1221337;-249.1910247;-249.2166109;-250.179998;-252.4182993;-253.0571203;-253.343168;-252.3924403;-252.5064153;-251.8628179;-251.8903112;-251.8422986;-251.6724656;-251.4978425;-250.7990791;-249.5162657;-249.4476934;-249.9689131;-251.896895;-252.3489003;-252.8278885;-252.6415292;-251.7877259;-252.0990301;-251.9951119;-251.930594;-251.872498;-251.5156028;-250.496337;-249.7007051;-249.4015565;-250.0219371;-251.8006896;-252.1867292;-252.2005105;-250.7424631;-250.6145475;-250.2831889;-250.3091911;-250.2862477;-250.7012167;-251.0477241;-250.8004228;-249.2205914;-248.2431233;-248.1863393;-250.7194401;-251.9038665;-252.4690607;-252.2886687;-251.7194466;-250.4645522;-250.4450258;-250.0484575;-250.041016;-250.1284344;-251.1229527;-249.9111464;-249.5987544;-249.5274764;-250.583116;-251.6761383;-251.955196;-252.1614997;-252.2515726;-251.8206215;-251.6506244;-251.4358941;-251.4210387;-251.4225821;-250.8645552;-249.3816261;-249.1175171;-249.1775703;-250.6319916;-251.4831728;-252.2583695;-252.3199467;-252.5862202;-252.213905;-251.4505582;-251.2772063;-251.2163296;-251.3826545;-251.0177222;-249.4896681;-249.1105097;-249.035914;-250.1719756;-251.1947601;-252.0046083;-252.171979;-252.2913882;-251.5426341;-251.3325218;-250.9723484;-250.7814198
-250.7035184;-250.7581978;-250.7040939;-250.4930816;-250.3288876;-250.319517;-250.3141627;-250.3589163;-250.383595;-250.3849343;-250.2310095;-249.7322963;-249.3133175;-249.2854355;-249.5755608;-249.9509893;-250.4769971;-250.5470945;-250.4366036;-250.1731216;-250.0539913;-249.9864581;-250.0183124;-250.0396804;-250.2023488;-250.2317739;-250.2468712;-250.1322532;-249.8600747;-249.9406937;-250.0566628;-250.3034548;-250.7315267;-250.842278;-250.2119016;-250.0413976;-248.2154802;-248.142547;-248.3136693;-250.1748407;-250.4304787;-250.5915481;-248.8161735;-248.3859499;-248.1085387;-249.9208677;-250.3828297;-251.0286836;-250.9808067;-251.0242605;-248.9997682;-248.801815;-248.7311802;-250.4002415;-250.5277467;-250.7741265;-249.1887506;-249.0766142;-248.7540283;-249.9185803;-249.8480721;-250.0723116;-250.4218661;-250.8376694;-251.2197964;-249.8284512;-248.9511488;-248.8163625;-248.8993343;-248.9683621;-249.260404;-249.5654863;-249.7993113;-249.7178319;-249.2672303;-248.767437;-248.6703985;-250.5162545;-251.0902391;-251.3631775;-249.8375945;-249.586967;-248.821086;-248.8896923;-248.8004926;-249.0966853;-249.2033433;-249.4072515;-249.5348874;-249.4330721;-248.9655246;-248.7177755;-248.7927474;-250.8584093;-251.4210387;-251.5115486;-249.7591361;-248.8114502;-248.6573777;-248.5790929;-248.7950142;-248.9687404;-250.8975942;-251.0296452;-251.1550973;-249.2907459;-248.9556884;-248.7275929;-249.030993;-251.0519557;-251.6237631;-251.855268;-249.926777;-249.0086618;-248.8806183;-248.9594714;-249.2480797;-249.5709987;-249.8055958;-250.0641053;-250.0749836;-249.7416229;-249.4040243;-249.2052386;-249.2750051;-250.1198426;-252.129679;-252.2608941;-252.280899;-249.4454146;-249.836642;-249.9973297;-250.5469029;-250.8432381;-251.1308437;-250.8539922;-250.7297999;-249.1398679;-248.7130559;-248.5998382;-248.8450845;-249.819499;-250.0585711;-250.4000501;-250.3711594;-250.1311076;-249.477891;-249.3996583;-249.4294645;-249.4957471;-249.6656977;-249.7043206;-249.4799804;-249.0203946;-248.6009699;-248.6485092;-249.3360829;-249.7383871;-250.1704476;-250.3047933;-250.1700656;-249.9492733;-249.6873859;-249.5514213;-249.5259563;-249.624995;-249.731535;-249.7008954;-249.3804873;-248.8745693;-248.7349565;-248.7570498;-249.1552127;-249.5666268;-249.7756996;-249.8322608;-249.5896286;-249.3104721;-249.1417622;-249.1646858;-249.1349428;-249.2860045;-249.3601808;-249.3136968;-248.8874238;-248.4854046;-248.5879564;-248.7141886;-248.9615522;-249.3524006;-249.6310805;-249.4387685;-248.8443286;-248.5457189;-248.4401881;-248.5263021;-248.6334154;-248.8467854;-248.852077;-248.4708958;-247.8938067;-247.5954146;-247.8150648;-248.3161156;-249.3529699;-249.5917198;-249.7191641;-249.5848758;-248.5376125;-248.4038384;-248.3609105;-248.426438;-248.4328419;-248.4539397;-248.1025271;-247.1746192;-246.7197648;-246.9384218;-247.8660538;-248.8698437;-249.0696091;-249.0999045;-248.854345;-248.5619334;-248.5756985;-248.7874582;-248.9409355;-249.2784186;-249.7109809;-249.5822143;-247.972974;-247.6101955;-247.6669032;-248.1664147;-249.1478243;-249.5105658;-249.4697236;-249.1912142;-247.909186;-247.8596791;-247.7438652;-247.84993;-247.9786039;-248.3392639;-248.072286;-247.1608224;-246.6026008;-246.6714746;-247.2546337;-248.3370053;-248.6445469;-248.9872805;-248.7714032;-248.359781;-248.190663;-248.3087768;-248.3300417;-248.4722147;-248.6547359;-248.6168143;-248.0187715;-247.5168621;-247.3164053;-247.5164881;-248.4968998;-248.809183;-249.2505445;-249.1220627;-248.8439506;-248.3458516;-247.9624655;-247.9328212;-248.0197102;-248.1504397;-248.2694557;-247.8396194;-247.3343267;-246.8632612;-246.6985891;-247.2533277;-248.3891508;-248.5609906;-248.4484765;-248.0386724;-247.9624655;-248.1363459;-248.487289;-248.6654919;-248.9099224;-248.8656853;-248.3594045;-247.5273329;-247.2027769;-247.3858652;-248.4854046;-249.1338063;-249.2558533;-249.2450462;-248.9821722;-248.7755584
-194.2783148;-211.7921571;-221.0930025;-244.1250404;-250.3076614;-248.8878019;-246.369903;-233.1921859;-228.0384186;-218.6154378;-208.453808;-198.254091;-197.7861854;-203.9943472;-207.9182414;-204.975153;-192.5219214;-185.578174;-182.0790474;-176.5120989;-173.2631123;-169.8595796;-163.8350819;-160.6100309;-160.9543201;-165.474438;-172.4986589;-179.1133705;-188.3204212;-197.1968641;-223.0484537;-238.4906968;-244.5648929;-241.5923403;-232.8134281;-231.9685791;-217.0800752;-202.6048578;-193.7215924;-192.3624471;-201.7103551;-210.8876111;-212.3399123;-208.1035062;-201.7360617;-197.3901393;-190.9769274;-187.0678975;-178.0765859;-165.2358697;-154.6486389;-149.8995165;-147.5797542;-152.2381098;-151.7911326;-150.6386062;-163.5754875;-180.6637367;-202.6021018;-215.4106687;-220.0727106;-226.5834286;-225.3446156;-217.2164972;-206.4099398;-197.0672363;-202.3282538;-218.0060039;-224.380176;-219.9502466;-207.6386592;-199.1222505;-182.8744218;-172.9661421;-161.5779977;-152.9136045;-145.0619525;-142.3413804;-150.1740428;-158.0748322;-169.1188653;-184.9480185;-193.5696158;-204.3087721;-207.3649457;-201.7960694;-197.4938824;-193.1575755;-193.4097717;-187.9807516;-189.3805412;-202.3602416;-217.5848855;-220.3559778;-214.0832224;-205.8152367;-190.876247;-177.1251422;-167.9889467;-159.9699657;-150.9032689;-147.0872091;-145.4293199;-144.6579808;-148.5292131;-150.7412391;-156.3422955;-164.2350766;-177.0542223;-204.6078127;-228.8516351;-248.7914251;-249.906572;-239.5262545;-234.9304859;-225.4083277;-217.7546424;-209.0870921;-208.6011114;-216.3280935;-218.3382253;-208.8054242;-197.7861854;-182.8247305;-181.1170033;-176.7569017;-171.4192744;-166.0936241;-160.0976798;-154.889804;-159.0419527;-164.9485678;-171.2163956;-178.3439005;-185.0382562;-194.3555223;-198.2316625;-199.8964128;-200.6212051;-201.2836154;-201.142881;-199.9903566;-199.9494741;-198.1892182;-212.1317862;-232.9902273;-241.6156772;-241.3873122;-229.9896962;-226.6025455;-225.8369552;-233.0631441;-229.3254052;-221.2648432;-214.3514115;-211.2936716;-207.8256667;-202.6282868;-196.4194085;-182.9047396;-169.8685614;-161.6557192;-155.5196003;-149.7403866;-146.7822098;-144.0955647;-149.2578106;-154.5701429;-161.0608081;-171.9496478;-176.0474087;-186.2013159;-194.8308319;-211.7910619;-230.2405064;-241.7916505;-241.735461;-234.5932509;-221.7316956;-225.9370835;-224.9564566;-221.3639484;-204.2298204;-194.1666454;-189.2008779;-200.8158392;-215.660619;-222.4296401;-214.9543746;-204.7269578;-191.7717304;-178.1835899;-168.951441;-157.3674345;-155.0125389;-157.1119442;-158.9652583;-162.8538868;-168.3671058;-176.5588932;-182.4660622;-195.7177083;-214.0405702;-226.2417508;-236.3198522;-236.8754161;-231.7505381;-219.8851554;-222.5615327;-223.2493556;-227.8894958;-218.5721271;-205.2144396;-203.8553782;-207.6947261;-213.6411647;-208.0639959;-196.3758536;-185.2794261;-177.3222164;-170.0038445;-165.7734721;-164.3551842;-165.9760916;-172.1137578;-178.0143794;-187.9944486;-197.1606745;-203.0723312;-207.0574051;-211.5941205;-222.1642145;-241.6010688;-247.25538;-242.6793303;-237.2335042;-230.189395;-225.4604404;-215.6434456;-215.9566861;-214.9703101;-221.7084413;-221.0154556;-212.6292715;-195.5575662;-171.5121407;-151.3704041;-136.5359366;-132.846765;-132.1684344;-140.2220307;-144.1697425;-154.81355;-166.5644077;-178.948156;-194.8542354;-214.0306437;-215.3335182;-205.2072426;-195.2933393;-178.6783463;-170.5862049;-160.4625584;-158.4669327;-152.0092856;-149.0646327;-166.9079421;-182.552063;-178.1578198;-176.8801785;-186.2162363;-196.8928107;-207.8285666;-215.0847487;-217.6409598;-213.2869705;-206.959582;-204.2598658;-195.7669366;-191.3197013;-191.2015876;-199.5915217;-208.8204611;-224.1016476;-230.6404748;-231.2740506;-249.5027762;-239.784445;-218.5088689;-209.5380851;-226.2617474;-243.4942732;-248.2211211;-242.2406764;-231.3664794;-223.0631823;-212.6899991;-196.7309768;-185.0576939;-190.0739483
-254.110381;-254.0910702;-254.0861444;-254.0784606;-254.0924494;-254.0948139;-254.0841742;-254.0623064;-254.0670342;-254.0747174;-254.0989518;-254.107031;-254.1093957;-254.1356078;-254.1521655;-254.1521655;-254.1488144;-254.1395499;-254.1026957;-254.047533;-254.0205514;-253.9677865;-253.9732982;-253.9731013;-253.9740856;-253.9811725;-253.98196;-253.9868817;-253.9880629;-253.9801882;-253.9740856;-254.0128716;-254.0203545;-254.042412;-254.0762934;-254.0680192;-254.0168099;-253.9721171;-253.9589288;-253.9475132;-253.9309821;-253.9333436;-253.9437739;-253.9510559;-253.9557796;-253.9443643;-253.9215367;-253.9496782;-253.9959382;-254.0849623;-254.1772034;-254.2148681;-254.2353813;-254.24485;-254.2399183;-254.1858791;-254.1525598;-254.1354107;-254.1377759;-254.1434921;-254.1584738;-254.2292664;-254.2815481;-254.2572788;-254.2523466;-254.2308444;-254.1994853;-254.2016546;-254.1612338;-254.1535454;-254.146646;-254.1590652;-254.1653739;-254.1454633;-254.1336367;-254.090085;-254.0693982;-254.0847652;-254.1052574;-254.1164902;-254.1358049;-254.1241763;-254.1168843;-254.1117605;-254.0934346;-254.1046663;-254.1176726;-254.1616281;-254.1582767;-254.1695141;-254.1695141;-254.1622195;-254.1594595;-254.1430979;-254.1216142;-254.1024987;-254.047927;-253.976251;-253.9059927;-253.863699;-253.8255485;-253.8188635;-253.8434424;-253.8526853;-253.8218127;-253.8304641;-253.8275147;-253.8284979;-253.8253519;-253.7878025;-253.7738472;-253.7465307;-253.738278;-253.7626448;-253.7644135;-253.7840678;-253.8153245;-253.8271215;-253.8186669;-253.7756161;-253.7628413;-253.7502643;-253.6923082;-253.6793453;-253.6858266;-253.7172555;-253.7363131;-253.7575352;-253.7343483;-253.7970414;-253.8326271;-253.8560287;-253.8666493;-253.8583887;-253.8851392;-253.8886801;-253.9268497;-253.9286207;-253.9650307;-253.963456;-253.970936;-253.9288175;-253.8849425;-253.8245654;-253.7703095;-253.7815126;-253.7997935;-253.8467855;-253.8566187;-253.8520953;-253.8304641;-253.8479655;-253.8550453;-253.8633057;-253.8995002;-253.9063862;-253.9469228;-253.9349179;-253.9650307;-253.9711328;-253.9860942;-254.0079488;-254.0170068;-254.0219299;-253.9961351;-253.9770384;-253.94771;-253.965818;-253.983338;-254.0034201;-254.037882;-254.0292164;-254.0445786;-254.0325644;-254.090282;-254.0896909;-254.1091986;-254.1151106;-254.1312716;-254.1634024;-254.1598538;-254.1876537;-254.1712885;-254.1933722;-254.1001341;-254.0802337;-253.9880629;-253.9545986;-253.9237012;-253.912092;-253.9101245;-253.8908441;-253.9099277;-253.904222;-253.8969427;-253.8932048;-253.9136661;-253.94771;-253.9280303;-253.9101245;-253.9490877;-253.9731013;-253.9835349;-254.0095241;-254.0416242;-254.0416242;-254.0219299;-253.9553859;-253.9254722;-253.937673;-253.9258658;-253.9567637;-253.9237012;-253.9174046;-253.9364922;-253.922127;-253.9183884;-253.8979263;-253.9122888;-253.9307853;-253.9668023;-253.9957413;-253.9967257;-254.0172037;-254.0209453;-254.0390637;-254.0658523;-254.0254746;-253.9957413;-253.9910161;-253.9977102;-253.9949537;-254.0110994;-254.0124778;-254.0298072;-254.0266562;-253.9996791;-254.0085396;-254.0081457;-254.0187791;-254.0103117;-254.0248838;-254.0101148;-254.0219299;-254.0335491;-254.0112963;-254.0087365;-253.9839286;-253.9345243;-253.8782543;-253.8707798;-253.8428525;-253.8412793;-253.8119822;-253.8245654;-253.7885888;-253.7964516;-253.7992038;-253.7905544;-253.809623;-253.8149313;-253.8410826;-253.826335;-253.8349867;-253.7999901;-253.7836747;-253.7732576;-253.7689337;-253.7703095;-253.7467272;-253.6932903;-253.6699187;-253.6767922;-253.6897548;-253.7145052;-253.7284539;-253.7239352;-253.6995758;-253.6817021;-253.6978079;-253.7241316;-253.7292398;-253.7355272;-253.7148981;-253.7253104;-253.7384744;-253.7433867;-253.7606795;-253.7958619;-253.7925201;-253.7577317;-253.7093976;-253.6740428;-253.6571545;-253.6282926;-253.6343785;-253.6408575;-253.6436062;-253.6237773;-253.6373235
-253.466238;-253.4991815;-253.5056535;-253.5521443;-253.5607774;-253.5268371;-253.5293872;-253.5278179;-253.5664677;-253.6068958;-253.7009508;-253.7001651;-253.7255069;-253.7787609;-253.8304641;-253.8784511;-253.925669;-253.8489488;-253.6793453;-253.6059143;-253.5537139;-253.5945305;-253.5878576;-253.6184771;-253.6247589;-253.6341822;-253.6418392;-253.6318263;-253.645766;-253.6626527;-253.7207918;-253.7402428;-253.7290434;-253.7736507;-253.8410826;-253.8520953;-253.8922211;-253.8363632;-253.7001651;-253.6312373;-253.6119993;-253.6610818;-253.6846482;-253.6844518;-253.7093976;-253.6856302;-253.6815057;-253.690344;-253.6936831;-253.7011472;-253.7422078;-253.7980243;-253.7927167;-253.8135551;-253.8524887;-253.895959;-253.9038285;-253.8194533;-253.6233847;-253.5711771;-253.5219332;-253.5817739;-253.6116067;-253.6116067;-253.6033627;-253.577849;-253.5772603;-253.5802039;-253.6159252;-253.6394831;-253.6567618;-253.6614745;-253.6506747;-253.7158803;-253.7335623;-253.7298293;-253.6196549;-253.4229147;-253.2977329;-253.2994951;-253.2891177;-253.3466938;-253.3805859;-253.3729447;-253.4005727;-253.3980252;-253.4195828;-253.4197788;-253.4568272;-253.4797673;-253.5166372;-253.5762791;-253.6202438;-253.6559763;-253.6760066;-253.5843251;-253.3856803;-253.2846145;-253.2278494;-253.21376;-253.394498;-253.3999848;-253.4619246;-253.4552588;-253.4442805;-253.5482204;-253.5652903;-253.5297795;-253.5450813;-253.5631319;-253.6616709;-253.7602865;-253.8566187;-253.8692063;-253.7777781;-253.7121478;-253.6532273;-253.6824877;-253.6129807;-253.4815321;-253.3396423;-253.1793256;-253.0670878;-253.0008478;-253.022924;-252.9994804;-253.0489123;-253.1022736;-253.1402071;-253.152137;-253.1493989;-253.1012961;-253.0487169;-252.8770582;-252.7048527;-252.6880933;-252.6699722;-252.8495442;-252.9221473;-252.9528015;-252.9668619;-252.9561212;-252.9891275;-253.0061223;-253.0686514;-253.1273006;-253.2084768;-253.2572075;-253.3055653;-253.3494362;-253.3782347;-253.414291;-253.374708;-253.2433105;-253.0797927;-253.0338658;-253.0942582;-253.1466608;-253.1662196;-253.2260882;-253.2376347;-253.2221743;-253.2043678;-253.200259;-253.2495738;-253.2930336;-253.3688304;-253.4340872;-253.468983;-253.5427271;-253.5544987;-253.5811851;-253.4995737;-253.3911668;-253.2771749;-253.253097;-253.2157167;-253.2775665;-253.3559006;-253.3860722;-253.3895992;-253.367459;-253.3388588;-253.3130067;-253.2830483;-253.281482;-253.3510033;-253.3954777;-253.4191908;-253.4629049;-253.4909448;-253.5625433;-253.4707476;-253.3198609;-253.2423319;-253.2133686;-253.2558373;-253.2938168;-253.374708;-253.3884235;-253.3858762;-253.4825126;-253.537234;-253.5723544;-253.6467477;-253.7262928;-253.7471202;-253.773061;-253.8021525;-253.8271215;-253.8082469;-253.8188635;-253.7874094;-253.6390905;-253.340034;-253.2642545;-253.2895093;-253.357076;-253.3854843;-253.4168389;-253.4272268;-253.3845046;-253.4258547;-253.4580035;-253.4840813;-253.4772182;-253.5111452;-253.569411;-253.5988484;-253.6033627;-253.579419;-253.5943342;-253.5592077;-253.4593759;-253.3159441;-253.2587735;-253.3163358;-253.3886194;-253.3678508;-253.4119392;-253.3823493;-253.3615817;-253.2961664;-253.2681696;-253.2386133;-253.2296107;-253.2190433;-253.2824609;-253.3345497;-253.3760795;-253.4138991;-253.4168389;-253.4595719;-253.432323;-253.270323;-253.1290605;-253.077838;-253.0708014;-253.16309;-253.2065201;-253.2730637;-253.3355291;-253.3662835;-253.3598186;-253.2891177;-253.3654999;-253.4084116;-253.4515339;-253.4732966;-253.5023194;-253.521737;-253.6043441;-253.6257405;-253.5670563;-253.3764713;-253.1685668;-253.0618108;-253.0655243;-253.1341448;-253.1519414;-253.2123902;-253.2135643;-253.2108248;-253.1818688;-253.1490077;-253.1652416;-253.1885202;-253.2640587;-253.3098734;-253.3523745;-253.3749039;-253.4080196;-253.3868559;-253.1599604;-253.0326934;-253.0108109;-253.0776426;-253.1400115;-253.1593737;-253.1914548
-253.7919304;-253.7911441;-253.7933064;-253.8225992;-253.8157177;-253.8454089;-253.8678294;-253.8863195;-253.8908441;-253.8770741;-253.9022546;-253.8833688;-253.9026481;-253.9067797;-253.9020578;-253.9205529;-253.9240948;-253.8928113;-253.8300709;-253.7942893;-253.7119513;-253.7539979;-253.7685407;-253.7891785;-253.7958619;-253.7864266;-253.7762057;-253.7630378;-253.8019559;-253.8245654;-253.8410826;-253.8491454;-253.8530787;-253.8218127;-253.8300709;-253.8495387;-253.7850506;-253.7217741;-253.7213811;-253.7532119;-253.7697199;-253.7661823;-253.7337588;-253.7107727;-253.6873979;-253.7125407;-253.6958437;-253.7066474;-253.7329729;-253.7524259;-253.7758126;-253.7978277;-253.7864266;-253.7946824;-253.8049048;-253.8155211;-253.7538014;-253.7017365;-253.6540127;-253.6970223;-253.676203;-253.6746319;-253.6752211;-253.670115;-253.6818985;-253.6775778;-253.6842553;-253.6836661;-253.7003615;-253.725114;-253.7508538;-253.7750265;-253.7889819;-253.8379363;-253.8660593;-253.8412793;-253.7714887;-253.7190236;-253.6534237;-253.6269183;-253.5825589;-253.5782415;-253.6184771;-253.632219;-253.6204401;-253.6051292;-253.6092512;-253.5890352;-253.5603849;-253.5344876;-253.4870228;-253.5129105;-253.4638852;-253.4850618;-253.5386072;-253.5603849;-253.564113;-253.4685908;-253.3388588;-253.2497695;-253.1955634;-253.1889115;-253.2433105;-253.2560331;-253.2801116;-253.331416;-253.390187;-253.399201;-253.4589838;-253.4636892;-253.5495937;-253.5884464;-253.5923716;-253.6108215;-253.5947267;-253.6106252;-253.6098401;-253.6308447;-253.6614745;-253.6369308;-253.5101645;-253.5297795;-253.5501823;-253.5802039;-253.6174956;-253.6445879;-253.6714897;-253.6720789;-253.6447843;-253.6601;-253.6718825;-253.6811129;-253.7323835;-253.7571422;-253.7655927;-253.777385;-253.8052979;-253.8210262;-253.8290877;-253.8670427;-253.9028448;-253.9101245;-253.9142564;-253.8861228;-253.8686162;-253.83538;-253.8562254;-253.8762873;-253.899697;-253.9063862;-253.9006806;-253.8912375;-253.8810082;-253.8768774;-253.8841556;-253.9103212;-253.8914342;-253.9246851;-253.9437739;-253.9626686;-253.9841255;-253.9967257;-254.0278379;-254.0577757;-254.0554119;-254.0589576;-254.0544271;-253.9561732;-253.8794346;-253.8591754;-253.8461956;-253.8814017;-253.8920244;-253.9109115;-253.8985165;-253.8613389;-253.8581921;-253.8554387;-253.8794346;-253.8825819;-253.9103212;-253.9254722;-253.9772353;-253.9829443;-253.9888504;-253.9866848;-253.9829443;-254.0103117;-253.9941662;-254.0329583;-253.9502686;-253.8882867;-253.869993;-253.8932048;-253.895959;-253.9020578;-253.9048122;-253.9071732;-253.8981231;-253.9138629;-253.9107147;-253.9258658;-253.9479068;-253.9626686;-254.0000729;-254.0298072;-254.0361095;-254.0447755;-254.0430029;-254.1001341;-254.1354107;-254.1381701;-254.0038139;-253.8369531;-253.7685407;-253.7410288;-253.7473167;-253.7545875;-253.7944859;-253.8233856;-253.811589;-253.7899647;-253.7799402;-253.809623;-253.8361666;-253.8605522;-253.8871064;-253.9272432;-253.9339339;-253.9717234;-253.9778259;-254.0014511;-253.9902286;-254.018976;-253.9677865;-253.8786478;-253.811589;-253.8027423;-253.8397061;-253.8298743;-253.8782543;-253.8713699;-253.8749104;-253.8737302;-253.8727467;-253.8802214;-253.8851392;-253.8898604;-253.9142564;-253.9490877;-253.9894411;-254.0134623;-254.0067674;-254.0081457;-254.0164161;-254.0099179;-253.9378698;-253.8678294;-253.8418692;-253.8501287;-253.87255;-253.8572087;-253.869993;-253.8611422;-253.8367565;-253.8253519;-253.8251552;-253.8340035;-253.8477688;-253.8876965;-253.9020578;-253.9569605;-253.9729045;-253.9803851;-254.0223238;-254.0325644;-254.0766875;-253.9990884;-253.9203561;-253.8727467;-253.9246851;-253.9475132;-253.9532209;-253.9811725;-253.9579447;-253.9479068;-253.9603066;-253.9203561;-253.8827786;-253.9067797;-253.9237012;-253.941609;-253.9579447;-254.0018449;-254.0406394;-254.0445786;-254.0504876;-254.0372912;-253.9916067;-253.8892703
-233.3270196;-218.7993713;-217.6679957;-221.2243597;-222.8847478;-225.183713;-226.4844488;-224.3370087;-224.1457977;-225.7719116;-223.080191;-217.2110255;-201.9005156;-188.2068455;-170.6114301;-161.5029778;-162.282685;-176.7135285;-206.9852059;-217.6523806;-214.4432963;-222.3119301;-231.4601265;-247.1041598;-250.1112513;-253.1413805;-254.0869325;-254.5389293;-254.4744858;-254.3603072;-253.9374762;-254.180161;-252.8150138;-253.4581995;-252.2467179;-249.1728332;-249.8107379;-250.8687806;-250.9617763;-246.3408235;-227.8853751;-202.6459562;-181.8344262;-169.3748272;-163.6772969;-161.4209497;-160.9422245;-163.4915043;-181.4612373;-197.0627327;-199.0135265;-185.808215;-166.8318846;-174.2605745;-186.1730687;-197.8490027;-210.7174115;-215.3711664;-224.5014713;-231.5509042;-242.8503773;-247.5748365;-248.6256805;-249.5367878;-249.2799357;-249.0455673;-245.4383389;-237.8077014;-238.9106369;-237.9629609;-241.2893705;-241.2414063;-236.2815101;-228.968534;-218.2748116;-207.6311596;-198.7347016;-201.1359667;-206.605291;-222.8286667;-228.5583948;-239.7776018;-246.6651611;-249.9122901;-249.4011769;-250.7056284;-250.5447956;-251.6289803;-249.5261463;-249.0610898;-248.062708;-244.4696455;-237.8480943;-240.1527972;-246.7712333;-250.2239392;-249.8383565;-244.5170775;-230.4513378;-223.593033;-224.2350708;-228.1136677;-226.8808881;-226.9913788;-213.3936474;-188.8232016;-164.8501472;-143.5590751;-138.6526317;-147.5239416;-150.6964543;-153.7347066;-157.7150261;-179.6012017;-209.035605;-213.170276;-219.930907;-230.5526805;-244.5309457;-249.9212489;-251.3870902;-253.4911409;-253.8151279;-253.6206364;-253.1411849;-252.54164;-252.4083829;-252.2694395;-252.2766258;-252.7130384;-253.2215872;-253.833217;-254.9469052;-254.7482993;-251.9891043;-247.6030855;-243.0793563;-230.8269956;-223.9996172;-222.7347562;-219.2654037;-216.8771987;-202.2678044;-209.9851068;-208.604033;-215.6272683;-225.1159519;-231.2577281;-238.9369432;-244.5114212;-246.9808593;-248.8046488;-247.2206818;-247.1367749;-248.7759361;-250.8367093;-248.8668194;-245.9778157;-240.3305232;-233.4962802;-224.4713274;-215.1581889;-205.0133706;-195.0319151;-188.7884972;-192.6969576;-208.7780175;-213.3960099;-224.5028557;-235.9509217;-239.5978891;-246.9400967;-252.0984482;-253.5766716;-254.0197637;-253.9951506;-253.2521183;-252.6206881;-251.782889;-249.5584536;-247.0203319;-244.8080916;-242.7960334;-242.4810667;-241.0009848;-240.955793;-242.7021586;-242.1474094;-241.1694958;-232.2214222;-226.0042487;-218.8863364;-213.6114992;-222.1119582;-235.4242047;-242.3725541;-247.2432532;-249.7094585;-249.571759;-250.6862562;-249.6487683;-251.7093915;-252.1031032;-252.2412808;-251.6836775;-250.0190755;-248.191039;-249.496317;-250.1729306;-246.6159641;-241.8758946;-235.0135556;-225.2200857;-214.001429;-214.2222048;-218.2143411;-229.9633864;-237.0944622;-237.847749;-230.3230441;-217.1718678;-204.2676332;-196.1273718;-200.9870552;-205.7214251;-210.2017146;-213.7995203;-222.1574364;-225.2149773;-224.1804554;-206.4509056;-190.6897409;-167.9314355;-156.0662559;-158.7519222;-158.4057996;-159.7783865;-161.0994508;-160.6687019;-161.49072;-177.92004;-203.2800757;-211.5588739;-217.0061796;-219.4191323;-227.0771107;-239.0561779;-249.6036979;-252.7101149;-254.0510785;-254.2491901;-254.3115458;-254.1827242;-253.2597522;-253.8599621;-251.8744341;-251.7635434;-251.3598995;-251.3681911;-251.7548389;-252.0664495;-252.5151719;-252.6575032;-252.5439757;-252.5873884;-252.4029388;-251.2124776;-251.0729236;-249.5846857;-246.4227082;-243.9269507;-242.4561271;-242.8338196;-241.9351861;-236.5339443;-219.4748331;-200.1851133;-183.8146404;-175.7713701;-174.2665059;-182.8359521;-193.9836475;-203.8364829;-213.3633558;-221.6700447;-223.3494857;-215.3002685;-214.6190082;-213.8736209;-227.2645304;-235.5697615;-243.5109211;-244.010509;-247.4546166;-245.9859407;-246.2867575;-248.814662;-247.6912413;-241.4319545;-238.2280088
-253.9002872;-253.93295;-253.8995002;-253.9032383;-253.9451515;-253.9628655;-253.999876;-253.9979071;-254.0282317;-254.0264593;-254.0471391;-254.0892969;-254.1204317;-254.1105781;-254.0439877;-254.0164161;-253.9937724;-253.9591257;-253.9475132;-253.93295;-253.9431834;-253.9506623;-253.9551891;-253.9565669;-253.9522368;-253.9715265;-253.9758573;-254.02449;-254.0231115;-254.0595486;-254.1328483;-254.137973;-254.1421123;-254.1839073;-254.165571;-254.1781893;-254.1988937;-254.2274912;-254.2576734;-254.2699062;-254.2815481;-254.200077;-254.1533483;-254.0873266;-254.0755054;-254.0487148;-254.0160222;-253.9573542;-253.9144531;-253.9059927;-253.8654692;-253.8825819;-253.889467;-253.9299982;-253.9093375;-253.9457419;-253.9429866;-253.9559764;-253.9518432;-253.9805819;-253.9707391;-253.9837318;-254.0085396;-253.9880629;-254.0227176;-254.0242931;-253.9886536;-253.9516463;-253.8878932;-253.8507187;-253.8100162;-253.7754196;-253.7667719;-253.7653961;-253.7162732;-253.7066474;-253.7262928;-253.7771885;-253.7697199;-253.7712922;-253.8104094;-253.8186669;-253.8635024;-253.8664526;-253.8800247;-253.8983198;-253.9270464;-253.9701486;-253.9853067;-254.0010573;-254.055018;-254.0810218;-254.1162931;-254.1531512;-254.2150653;-254.2515575;-254.1829214;-254.1090016;-254.0755054;-254.0175976;-253.9616845;-253.9158305;-253.8995002;-253.8788445;-253.8943851;-253.8676327;-253.9134693;-253.9136661;-253.9368858;-253.9109115;-253.912092;-253.9545986;-253.9931818;-254.0313828;-254.0837801;-254.0747174;-254.0835831;-254.082992;-254.1151106;-254.1123517;-254.1675425;-254.1610367;-254.1971189;-254.1939638;-254.1620224;-254.1109722;-254.0654583;-254.0087365;-253.9150434;-253.8617322;-253.8200432;-253.8127686;-253.8434424;-253.8237789;-253.7799402;-253.7874094;-253.7976311;-253.8123754;-253.755177;-253.7577317;-253.7779747;-253.7995969;-253.8104094;-253.8495387;-253.8733368;-253.8703864;-253.8800247;-253.8686162;-253.8914342;-253.9355083;-254.0099179;-253.9862911;-253.943577;-253.9189787;-253.8863195;-253.8202398;-253.7233458;-253.6583327;-253.6204401;-253.6345749;-253.6597072;-253.6477295;-253.6412502;-253.6730608;-253.687005;-253.7080225;-253.7186307;-253.7264892;-253.7522293;-253.7944859;-253.7988106;-253.8281046;-253.8235823;-253.8574054;-253.9028448;-253.9353115;-253.9664086;-254.0061767;-254.0695952;-254.0770815;-254.0504876;-254.0130685;-253.9754636;-253.9002872;-253.8393128;-253.770506;-253.7009508;-253.6797381;-253.6620636;-253.6567618;-253.6624564;-253.6699187;-253.695058;-253.704683;-253.668544;-253.6901476;-253.732187;-253.7524259;-253.7795471;-253.7885888;-253.8202398;-253.8367565;-253.8568154;-253.8772708;-253.9118953;-253.9569605;-253.9931818;-254.0193699;-254.0260654;-254.0038139;-253.9233077;-253.8690096;-253.7858369;-253.7312046;-253.6930938;-253.6245626;-253.5853063;-253.5839326;-253.5596001;-253.556657;-253.571962;-253.5784377;-253.6116067;-253.6282926;-253.6489076;-253.6813093;-253.6707042;-253.6976115;-253.7339553;-253.7657892;-253.777385;-253.8151279;-253.8182736;-253.8489488;-253.876484;-253.9075667;-253.9412154;-253.9132726;-253.8727467;-253.7933064;-253.7237387;-253.6758103;-253.6353602;-253.61514;-253.6135696;-253.6094475;-253.6139622;-253.6206364;-253.6589218;-253.6852374;-253.6655983;-253.7359201;-253.7585178;-253.7732576;-253.773061;-253.7618587;-253.8068707;-253.8072639;-253.8617322;-253.8900572;-253.9374762;-253.9311789;-253.949875;-253.9888504;-253.9955444;-254.0207483;-253.9689675;-253.9323596;-253.8664526;-253.7868197;-253.7284539;-253.6724717;-253.6257405;-253.6306484;-253.5986521;-253.5631319;-253.600026;-253.6202438;-253.6314337;-253.6620636;-253.6811129;-253.7058616;-253.7093976;-253.7424043;-253.7575352;-253.754784;-253.7950756;-253.8400994;-253.8709765;-253.9071732;-253.9004839;-253.936689;-253.9699518;-254.003617;-254.0148407;-254.0077519;-253.9760542;-253.9481037;-253.9054025;-253.8499321
-254.1330454;-254.1267384;-254.110381;-254.1166872;-254.1417181;-254.1839073;-254.184696;-254.1860763;-254.1249646;-254.1131399;-254.0985577;-254.0447755;-254.0406394;-254.0502906;-254.0658523;-254.0701862;-254.0892969;-254.113337;-254.1224025;-254.1239792;-254.1030898;-254.1143224;-254.1411268;-254.1785836;-254.2018518;-254.2196016;-254.246231;-254.2770096;-254.2641843;-254.2395238;-254.0946168;-254.0666403;-254.0573818;-254.0544271;-254.042215;-254.0459573;-254.0654583;-254.0672312;-254.0755054;-254.0890998;-254.0885088;-254.0658523;-254.0778696;-254.1395499;-254.1598538;-254.17188;-254.2107264;-254.1975133;-254.2261105;-254.2543195;-254.2637897;-254.2671438;-254.2947699;-254.3271395;-254.3814363;-254.2979276;-254.2434691;-254.1852876;-254.1736544;-254.146646;-254.0865385;-254.055215;-254.0209453;-254.0569878;-254.037882;-254.0430029;-254.0526543;-254.0757024;-254.0822039;-254.0725503;-254.0747174;-254.0786576;-254.0959961;-254.1176726;-254.1545311;-254.1697112;-254.1738516;-254.1639938;-254.1730629;-254.144872;-254.1153077;-254.0755054;-254.0132654;-253.9691644;-253.9207496;-253.9026481;-253.9209464;-253.906583;-253.923898;-253.9307853;-254.0000729;-253.9910161;-254.007555;-253.984913;-253.9648338;-253.9892442;-254.0091303;-253.9992853;-254.0028294;-254.033943;-254.0268532;-254.0404424;-254.0711713;-254.1245704;-254.1434921;-254.1602481;-254.1498;-254.0989518;-254.055215;-253.9959382;-253.9656212;-253.9154369;-253.9026481;-253.8711732;-253.8491454;-253.8233856;-253.8017593;-253.8371498;-253.8536687;-253.8833688;-253.9154369;-253.89891;-253.908944;-253.9148467;-253.9504654;-253.9825506;-253.9831412;-254.0179914;-254.0345339;-254.0487148;-254.0762934;-254.0948139;-254.095208;-254.0101148;-253.9565669;-253.9028448;-253.8544553;-253.8111958;-253.7679511;-253.7595004;-253.7693268;-253.8214195;-253.8377397;-253.8340035;-253.820633;-253.8259417;-253.8497354;-253.8733368;-253.8995002;-253.8876965;-253.9490877;-253.9372794;-253.9662117;-253.9390506;-253.9512527;-253.9671959;-253.9675896;-253.9918036;-253.9931818;-253.922127;-253.866846;-253.8538653;-253.7927167;-253.7029151;-253.6483185;-253.5815776;-253.5596001;-253.6251515;-253.6842553;-253.7017365;-253.7402428;-253.7679511;-253.8188635;-253.7966482;-253.826335;-253.8646825;-253.8853359;-253.9176013;-253.9628655;-253.9843224;-254.0083427;-254.0105086;-253.9949537;-253.9758573;-254.001648;-254.0284287;-253.9896379;-253.8977296;-253.8652725;-253.8601588;-253.8581921;-253.8176838;-253.8129652;-253.8041184;-253.8051014;-253.8302675;-253.851702;-253.8556353;-253.8452123;-253.8298743;-253.8373464;-253.857012;-253.8414759;-253.8090332;-253.8444257;-253.8585854;-253.8526853;-253.879828;-253.9101245;-253.8890736;-253.9069765;-253.968377;-253.9648338;-253.9223238;-253.9138629;-253.8869096;-253.8373464;-253.7840678;-253.7156839;-253.6913261;-253.7072367;-253.6826841;-253.6718825;-253.6765958;-253.6718825;-253.6732572;-253.7009508;-253.7380815;-253.7838713;-253.7970414;-253.840886;-253.8871064;-253.9024513;-253.9136661;-253.9191755;-253.9484973;-253.9736919;-254.0174007;-254.0672312;-254.0345339;-253.9807788;-253.9355083;-253.8943851;-253.800973;-253.76009;-253.7323835;-253.760483;-253.7355272;-253.7424043;-253.7512468;-253.7357236;-253.7270787;-253.6787562;-253.6748283;-253.6655983;-253.715291;-253.7408323;-253.7801367;-253.7885888;-253.8320372;-253.8471788;-253.8711732;-253.8857293;-253.8823852;-253.937673;-253.9390506;-253.9237012;-253.8837622;-253.8436391;-253.7994003;-253.7288469;-253.6630455;-253.6263294;-253.6477295;-253.6424282;-253.6216179;-253.632219;-253.6769886;-253.6487112;-253.6532273;-253.6785598;-253.6842553;-253.6930938;-253.6879871;-253.7284539;-253.7192201;-253.7657892;-253.8202398;-253.8644858;-253.9038285;-253.9126823;-253.9315725;-253.9402314;-253.9067797;-253.8729434;-253.8202398;-253.7889819;-253.7793505;-253.7486922;-253.7386709
-253.777385;-253.8133585;-253.844229;-253.8865162;-253.8953688;-253.9231109;-253.9918036;-254.0136592;-254.0238992;-254.0455634;-254.0644733;-254.0873266;-254.1231908;-254.1519684;-254.1237821;-254.0581697;-253.9760542;-253.9404282;-253.8973361;-253.8786478;-253.8737302;-253.8955655;-253.9115018;-253.9158305;-253.9296046;-253.908944;-253.8827786;-253.8821885;-253.9227174;-253.9475132;-253.9943631;-253.9984977;-254.001648;-254.0370942;-254.0493057;-254.0908731;-254.1105781;-254.1259501;-254.1588681;-254.19002;-254.1896256;-254.1184609;-254.0733383;-253.99456;-253.9526304;-253.9250787;-253.916224;-253.8729434;-253.8753038;-253.8998937;-253.9227174;-253.911305;-253.9323596;-253.9443643;-253.9469228;-253.9612908;-253.9618813;-253.9843224;-253.9874723;-254.0140531;-254.0219299;-254.0469421;-254.0597456;-254.0357156;-254.030595;-254.0268532;-254.033943;-253.9837318;-253.977629;-253.9768416;-253.9914099;-253.9908192;-253.9943631;-253.9921974;-253.9815662;-254.0042077;-254.0416242;-254.0672312;-254.082795;-254.1127458;-254.1026957;-254.1204317;-254.1421123;-254.1566996;-254.1878509;-254.1990909;-254.1084104;-254.089888;-254.1174755;-254.1326512;-254.1429008;-254.1470403;-254.0814159;-254.0536391;-253.9959382;-253.9756604;-253.9229141;-253.9191755;-253.8941884;-253.9075667;-253.9237012;-253.9154369;-253.9272432;-253.9475132;-253.9882598;-253.9803851;-254.0107056;-254.0491088;-254.0561999;-254.0416242;-254.0571848;-254.1011193;-254.1202346;-254.1214171;-254.0652613;-254.0298072;-253.9981039;-253.9624718;-253.8772708;-253.8434424;-253.8347901;-253.8145381;-253.812572;-253.8192567;-253.8481621;-253.8574054;-253.884549;-253.8859261;-253.9083537;-253.9164208;-253.9642433;-254.009721;-254.0154315;-254.0209453;-254.0581697;-254.0979666;-254.0938287;-254.1084104;-254.1348193;-254.1539397;-254.164191;-254.1423095;-254.1677397;-254.1474345;-254.1403383;-254.0877206;-254.0640793;-254.0044046;-253.9179949;-253.8794346;-253.8577987;-253.8585854;-253.8253519;-253.7980243;-253.7648066;-253.8039218;-253.8052979;-253.8102128;-253.8251552;-253.8298743;-253.8414759;-253.87196;-253.9176013;-253.9449547;-253.9681802;-253.9870786;-253.9880629;-253.9872754;-254.0030263;-254.0394576;-254.0402455;-254.0388668;-253.9689675;-253.9020578;-253.854652;-253.8275147;-253.7874094;-253.7512468;-253.7054688;-253.7412253;-253.7636274;-253.7708991;-253.7927167;-253.7988106;-253.7994003;-253.7988106;-253.810606;-253.8412793;-253.8605522;-253.8876965;-253.8924179;-253.9703455;-254.0384729;-254.0912672;-254.0796427;-254.0743233;-254.1135341;-254.1245704;-254.1649796;-254.1476316;-254.1064398;-254.0703832;-254.0500936;-253.9973164;-253.9321628;-253.8747137;-253.8298743;-253.8340035;-253.810606;-253.8290877;-253.8298743;-253.844229;-253.8524887;-253.8670427;-253.8739269;-253.8817951;-253.9140596;-253.9101245;-253.9370826;-253.9729045;-253.9794007;-253.9795976;-253.977629;-253.9475132;-253.9547955;-253.9644402;-253.9740856;-253.9843224;-253.9233077;-253.8906473;-253.8428525;-253.8192567;-253.7406358;-253.6862194;-253.6834697;-253.6730608;-253.6805237;-253.6818985;-253.7186307;-253.7207918;-253.7767954;-253.7636274;-253.7693268;-253.7736507;-253.8056911;-253.8410826;-253.8890736;-253.9215367;-253.9353115;-253.9492845;-253.9597161;-253.9983008;-253.9986946;-253.9703455;-253.9449547;-253.8849425;-253.840886;-253.803332;-253.7504608;-253.6793453;-253.6720789;-253.6858266;-253.7025222;-253.7200059;-253.7300257;-253.7427972;-253.7500678;-253.7938962;-253.8518987;-253.8804181;-253.9071732;-253.9420026;-253.9750699;-253.991213;-254.0126747;-254.0286256;-254.0656553;-254.0892969;-254.1239792;-254.1519684;-254.1649796;-254.1389586;-254.0930405;-254.0461543;-253.9677865;-253.911305;-253.852882;-253.8430491;-253.8296776;-253.8389195;-253.811589;-253.8149313;-253.8438357;-253.8463922;-253.8747137;-253.8961557;-253.9408218;-253.9656212;-253.9988915;-254.0099179
-236.5366763;-232.0830958;-223.4244137;-214.8333136;-210.8599265;-212.8516482;-220.8841974;-229.4885865;-238.4604972;-244.9083621;-248.421541;-250.6089889;-251.1210281;-251.8678514;-252.2523493;-252.7607987;-252.7140129;-252.8959898;-252.8505198;-252.4013834;-251.8692067;-251.4715927;-250.8787686;-250.7253873;-250.7666417;-250.8514956;-250.9471691;-250.9558179;-250.5762175;-250.4256939;-249.5480003;-248.9666596;-246.9456798;-244.1425023;-239.6141837;-235.177677;-231.1371763;-226.2575291;-222.4118247;-217.7459602;-211.7255109;-202.0940264;-191.2183246;-176.3312425;-162.6626092;-152.1990762;-178.9720047;-179.091246;-179.2283886;-174.1947077;-169.4798659;-161.9739197;-154.2312513;-149.4405159;-147.9555253;-143.8076935;-142.6346425;-141.30754;-140.9384859;-143.1519109;-144.4984998;-147.1444096;-148.9642694;-148.2533505;-145.067861;-144.3472546;-152.4525142;-166.3882273;-181.7929634;-194.4305991;-202.8663925;-195.5358603;-203.2996248;-179.0620813;-185.2161694;-190.6624454;-195.1774777;-200.3796371;-206.7362959;-217.7711406;-225.0960026;-224.3684993;-230.0657541;-234.6087039;-244.2402256;-246.2797233;-239.723572;-246.3904665;-248.0167065;-248.3076478;-249.0336428;-251.0650362;-251.4206529;-250.8088695;-251.6001917;-251.714999;-250.6799273;-250.9763852;-251.0332992;-251.2059295;-251.1345007;-251.0727312;-251.099475;-251.2022705;-251.2068925;-250.7549356;-250.2287164;-250.0196478;-249.5213959;-248.7430758;-246.1186014;-247.3444086;-246.6053847;-245.8375598;-245.3933055;-244.9642052;-245.2338916;-245.5015974;-245.4262059;-245.6928581;-245.8421709;-246.2549216;-246.0402441;-245.2476577;-241.7681012;-242.1531358;-241.6461466;-241.8198443;-240.712934;-239.9319313;-239.3598565;-239.8416622;-240.3557326;-239.4746131;-238.4285704;-237.828414;-234.9101066;-233.7184537;-233.7531335;-232.2912236;-232.3096687;-233.9293593;-233.3356595;-234.3412527;-233.2333501;-229.3088752;-228.9285415;-228.550105;-227.6863297;-227.0541377;-226.6920615;-225.7482687;-228.323643;-230.9283436;-233.8315345;-231.8143165;-225.9585845;-220.3610163;-213.2354759;-204.8690394;-198.6707185;-195.1608542;-194.9904817;-196.5376929;-194.1083291;-194.9232044;-190.6082105;-188.9437326;-189.5677841;-189.3426775;-188.8359334;-185.7192249;-184.3285568;-181.4397346;-178.8841672;-178.622145;-179.9467085;-184.9782968;-190.9555587;-193.1550705;-197.7149374;-202.5791797;-205.6100218;-210.2184368;-213.5886637;-220.8635024;-228.6169189;-230.4380482;-233.3725528;-233.8492237;-234.8619513;-237.5213749;-239.1784996;-240.2517559;-239.481264;-242.5614824;-242.1078687;-241.1758861;-237.9671086;-241.7916505;-242.0506381;-244.1630595;-243.3855753;-238.3876333;-234.6228148;-232.9668705;-232.9286151;-229.7602127;-227.7376017;-228.3449642;-215.0061384;-213.1242439;-210.5285476;-209.3356801;-210.6347842;-210.6787989;-210.6972228;-205.0540405;-196.1072997;-196.8183033;-189.4255377;-187.5222478;-181.8252442;-184.9482273;-179.9380126;-176.8553566;-168.3981694;-159.2341676;-154.1026473;-155.2095402;-170.9186375;-168.6055247;-174.7847396;-158.3721124;-168.8412268;-173.002397;-174.539508;-181.7868112;-189.496415;-201.2817607;-208.249653;-211.7054021;-232.7486028;-241.6354547;-234.7803345;-243.5349921;-246.1137951;-248.2442517;-250.5930813;-251.519464;-251.5318209;-252.1192032;-252.1164874;-251.9046411;-251.5696713;-251.2271157;-251.9553897;-251.054841;-251.2130554;-251.8986378;-251.5886008;-250.262735;-249.7953122;-247.9067477;-247.1457222;-247.8426188;-248.8280772;-248.1938589;-247.9348848;-247.7331888;-249.4501621;-249.5308968;-248.5419484;-247.1947578;-248.0043172;-244.5181723;-244.6308066;-243.8256677;-241.95448;-243.29847;-242.0926641;-243.8888236;-244.071579;-242.6742979;-245.6457055;-244.1708831;-246.4903689;-244.3821272;-243.0432964;-239.3906341;-236.3858297;-235.0862265;-231.6252149;-233.8710886;-233.5190777;-231.0421611;-229.7647238;-233.4267506;-232.0360925;-230.2657469
-253.0448086;-253.0520391;-252.9893228;-252.7806879;-252.6838063;-252.6294526;-252.6820526;-252.6797144;-252.725123;-252.7795178;-252.7023192;-252.6047188;-252.6158192;-252.6869241;-252.6908214;-252.7350644;-252.8007752;-252.8678862;-252.9432335;-252.9781895;-253.0018245;-253.0129599;-253.0483261;-252.9774083;-252.7368188;-252.5926457;-252.5430025;-252.577264;-252.6035503;-252.66666;-252.6723102;-252.7075812;-252.6619841;-252.6489316;-252.6532173;-252.72025;-252.7705479;-252.8499344;-252.8836937;-252.9106295;-252.9610032;-252.9738927;-252.9742834;-252.9494819;-252.9877602;-252.8066265;-252.5784321;-252.4750911;-252.4352175;-252.4513599;-252.4840401;-252.5688924;-252.5889461;-252.5912827;-252.5233453;-252.4824837;-252.4682825;-252.5309354;-252.6341273;-252.7344795;-252.8179398;-252.8795953;-252.9112152;-252.9223426;-252.9670572;-253.0115923;-253.0221424;-253.0336704;-252.8392036;-252.5961507;-252.4340507;-252.4694497;-252.5009671;-252.5356064;-252.5832996;-252.6230253;-252.6388021;-252.5801844;-252.5871937;-252.5920615;-252.6302317;-252.6263363;-252.5959559;-252.5986821;-252.6109505;-252.7029038;-252.8009703;-252.9077015;-252.8998936;-252.9897135;-253.0850705;-253.12163;-253.1022736;-252.8860357;-252.7040732;-252.6376334;-252.6423084;-252.6951086;-252.7982397;-252.8310098;-252.8255475;-252.7951192;-252.768988;-252.783418;-252.8243771;-252.9024311;-252.9463576;-252.9809239;-253.0293717;-253.0909349;-253.1091165;-253.1583957;-253.1992807;-253.2194347;-253.2667993;-253.2985161;-253.3155525;-253.2262838;-253.0330842;-252.7007601;-252.6156244;-252.6002399;-252.699201;-252.7845881;-252.8308147;-252.8183299;-252.7646983;-252.7286316;-252.7268773;-252.7668431;-252.8111127;-252.8552026;-252.8971609;-252.9092631;-252.9549495;-252.9654949;-253.0047548;-252.9998711;-253.0323026;-253.0389462;-253.0471536;-252.8237918;-252.568503;-252.4515544;-252.4212161;-252.4933789;-252.6754277;-252.8606662;-252.9207808;-252.871594;-252.8413497;-252.8308147;-252.8795953;-252.9330805;-252.9783849;-252.9938155;-253.0575112;-253.0702151;-253.075297;-253.0954312;-253.1271051;-253.1632856;-253.1941938;-253.2309806;-253.0764698;-252.8339361;-252.649516;-252.6206881;-252.6304265;-252.7383783;-252.8505198;-252.8442763;-252.8657397;-252.8343263;-252.8029207;-252.8202806;-252.8747164;-252.914729;-252.9834631;-253.0080758;-253.0205794;-253.0451994;-253.0762743;-253.1040332;-253.1351226;-253.2123902;-253.2476165;-253.2855935;-253.2456592;-252.793364;-252.5988768;-252.4883203;-252.5099179;-252.5634415;-252.6479575;-252.6853652;-252.6988113;-252.651464;-252.654581;-252.6536069;-252.675038;-252.7157671;-252.7572891;-252.7984348;-252.8487638;-252.8967705;-252.9020407;-252.9522157;-252.9733068;-253.0321072;-253.085266;-253.1259318;-253.1804994;-253.1106806;-252.857349;-252.6497108;-252.6014083;-252.5675297;-252.6222462;-252.7175212;-252.7543646;-252.7666481;-252.7627484;-252.7619685;-252.7411076;-252.7990199;-252.8581295;-252.9240996;-252.9418667;-252.9330805;-252.9854163;-252.9815099;-253.0256593;-253.0629835;-253.0680651;-253.0594655;-253.077838;-253.1081389;-252.9940108;-252.7379884;-252.5025237;-252.4651702;-252.4926006;-252.5601321;-252.6802989;-252.7602137;-252.7453964;-252.7073863;-252.6623738;-252.688483;-252.7206398;-252.7356492;-252.7715228;-252.783418;-252.8210608;-252.8421301;-252.8952091;-252.9010647;-252.9430382;-252.9889322;-253.0016292;-253.0190164;-252.9244901;-252.6882881;-252.4947408;-252.4782038;-252.4820946;-252.5825208;-252.673869;-252.724928;-252.7243433;-252.6760122;-252.6853652;-252.6836115;-252.7399379;-252.7945341;-252.8667154;-252.9201951;-252.9889322;-253.024487;-253.0641561;-253.1329715;-253.2039765;-253.2699315;-253.2791327;-253.2006503;-252.9744787;-252.7627484;-252.6680238;-252.6319847;-252.7105047;-252.7448116;-252.7845881;-252.7479309;-252.7475409;-252.7327251;-252.7617736;-252.7594338;-252.8081869;-252.8462273
-249.5261463;-249.6059795;-249.5715689;-249.6767316;-249.6447741;-249.6944259;-249.6693122;-249.6107331;-249.4833995;-249.5117057;-249.4758016;-249.5022063;-249.5831648;-249.5945716;-249.6455349;-249.6065499;-249.6373565;-249.586967;-249.6656977;-249.6278475;-249.6438231;-249.6457251;-249.6149164;-249.5900088;-249.5181658;-249.4000379;-249.2617313;-249.225899;-249.1749175;-249.2150945;-249.2346192;-249.289039;-249.3358931;-249.3890285;-249.4513015;-249.4399078;-249.4940373;-249.490238;-249.4957471;-249.5251962;-249.5881076;-249.5748005;-249.5580735;-249.5575033;-249.542869;-249.4949872;-249.5075259;-249.6202408;-249.6171983;-249.6582789;-249.6495292;-249.5865867;-249.550471;-249.522536;-249.5556026;-249.5563629;-249.6189097;-249.6171983;-249.6434427;-249.5542722;-249.4169336;-249.3687205;-249.2985222;-249.4228191;-249.4083905;-249.4340214;-249.4560492;-249.4797904;-249.4235786;-249.4862488;-249.4461742;-249.4418067;-249.4712431;-249.4742821;-249.4623165;-249.5516113;-249.5748005;-249.5405885;-249.4592778;-249.4393381;-249.5308968;-249.5915297;-249.6219523;-249.6605616;-249.6379271;-249.6267065;-249.6076908;-249.5670069;-249.6145361;-249.6065499;-249.5174058;-249.7153579;-249.7970261;-249.7467624;-249.6527627;-249.5497108;-249.4951772;-249.5776519;-249.522726;-249.5709987;-249.5685276;-249.7132645;-249.6472467;-249.6803464;-249.8290226;-249.7781748;-249.6786341;-249.8282607;-249.7637051;-249.665888;-249.7728437;-249.6225228;-249.5044861;-249.5533219;-249.496507;-249.4435157;-249.6126346;-249.5814539;-249.5713788;-249.6738779;-249.5010664;-249.5831648;-249.5455297;-249.6362154;-249.593621;-249.6584692;-249.6550453;-249.7302027;-249.6384977;-249.5810737;-249.5765113;-249.4325024;-249.5487605;-249.5016363;-249.567197;-249.5527517;-249.505436;-249.4816899;-249.4167437;-249.4588979;-249.4925176;-249.5728996;-249.5658664;-249.6221425;-249.6196703;-249.5894384;-249.5069559;-249.3916858;-249.2964358;-249.2408753;-249.3076268;-249.3271659;-249.3577138;-249.471433;-249.3778302;-249.3237511;-249.2346192;-249.3476569;-249.3721366;-249.3499338;-249.3260276;-249.3863712;-249.3732753;-249.268368;-249.1025557;-249.0584395;-249.0493531;-249.0472709;-249.0482173;-249.1190323;-249.1499081;-249.1137293;-249.0999045;-249.1500976;-249.1807916;-249.2243826;-249.2520613;-249.278229;-249.3110411;-249.3607501;-249.2118723;-249.2695058;-249.2478901;-249.2003109;-249.1991738;-249.2842976;-249.3370315;-249.4211104;-249.4824497;-249.4399078;-249.4919477;-249.4361101;-249.4657351;-249.5443894;-249.6921426;-249.693094;-249.7494274;-249.8551211;-249.7223994;-249.6771121;-249.5550324;-249.586967;-249.6141558;-249.8101665;-249.6835807;-249.5839252;-249.7389581;-249.665888;-249.7859816;-249.930399;-249.9498453;-249.9450788;-250.0217463;-249.9797831;-249.935165;-249.7562805;-249.6312707;-249.5413487;-249.5160757;-249.5696681;-249.5666268;-249.6111134;-249.5871571;-249.4991666;-249.4045938;-249.4625064;-249.458708;-249.4617467;-249.4752318;-249.4397179;-249.4530107;-249.4361101;-249.3273556;-249.1929197;-249.0726383;-249.0893003;-249.1125929;-249.2177482;-249.2312069;-249.257939;-249.1932988;-249.2048595;-249.2044805;-249.3962414;-249.4025057;-249.3998481;-249.4393381;-249.5166457;-249.407821;-249.1392996;-249.0253152;-249.0241797;-249.0843772;-249.1055857;-249.1538866;-249.2861941;-249.3241305;-249.2970048;-249.3117999;-249.3930145;-249.4214901;-249.4290847;-249.4642157;-249.5360276;-249.5784123;-249.5297567;-249.4858689;-249.4030752;-249.3958618;-249.4385786;-249.460987;-249.624995;-249.6936648;-249.6695024;-249.5483804;-249.5158857;-249.4676344;-249.6246146;-249.5202559;-249.5487605;-249.468584;-249.5212059;-249.5041061;-249.3508826;-249.3131278;-249.2695058;-249.3381699;-249.5540821;-249.553892;-249.6242343;-249.8280702;-249.8406424;-249.7140257;-249.7989304;-249.6782536;-249.6468663;-249.7657993;-249.742765;-249.6506704;-249.6605616
-251.0831202;-250.8401657;-249.4182626;-248.4788095;-248.2075833;-248.7336348;-249.7812213;-250.7683689;-250.994072;-251.0117612;-250.9246851;-250.5794751;-250.6711058;-250.9871508;-251.3352208;-251.5491998;-251.3851616;-251.4621364;-250.9565867;-249.8193085;-247.9356353;-247.7745884;-248.2113436;-249.8560737;-250.9365992;-251.601544;-251.5866691;-250.702943;-249.9088592;-250.090062;-250.357386;-251.1941824;-251.4314566;-251.6284006;-251.5173403;-251.1847469;-249.736103;-249.0705557;-248.9549318;-249.8120711;-251.2777844;-252.1558723;-252.2043928;-251.538386;-250.6201064;-250.6755165;-250.8922152;-251.1972635;-251.4036776;-251.4964912;-251.2334722;-251.0484935;-249.3814363;-246.8820471;-246.6315565;-247.2462381;-249.3376007;-250.8369013;-251.2962845;-251.2074702;-250.3329037;-250.392779;-250.5863738;-250.8997075;-251.1258396;-251.3703123;-251.5395445;-251.2548557;-250.6766671;-248.2359768;-247.5750235;-247.4222912;-248.6424714;-250.0574261;-250.6695717;-250.9365992;-250.8893337;-250.8787686;-250.9291047;-251.1816661;-251.3342568;-251.4733296;-251.2334722;-251.2760501;-251.3892118;-249.6113035;-247.9551476;-247.5576283;-247.7616613;-249.0077156;-250.1440922;-250.7221259;-250.8660917;-250.8115572;-250.7837231;-250.7833392;-250.7422712;-250.8480389;-250.9973404;-251.1747346;-251.3919119;-251.6102379;-250.4938475;-249.1588124;-248.2246938;-248.1564536;-249.2406857;-249.8137852;-250.5792834;-250.6400435;-250.4930816;-250.4563201;-250.559356;-250.7768135;-251.0146455;-251.3036082;-251.4127437;-251.5903393;-251.4102359;-251.2471495;-250.0089651;-249.0432959;-248.7763139;-248.7657372;-249.5286166;-250.1246158;-250.7098485;-250.699874;-250.6720646;-250.6875987;-250.814437;-250.9671584;-251.2417555;-251.4548034;-251.6438602;-251.5026684;-251.5777836;-250.8079096;-249.3154041;-248.0974551;-248.0080714;-248.5847504;-250.1171697;-250.9291047;-251.0790799;-250.8599458;-250.486188;-250.2006293;-250.3097647;-250.4741251;-250.6766671;-250.8215406;-250.8883732;-251.1085192;-251.1094813;-249.8429284;-248.5856933;-248.3174328;-248.3008739;-249.1408151;-250.3371113;-251.1029386;-251.2812529;-251.0031085;-250.1490573;-250.2260412;-250.5195105;-250.9688883;-251.2691134;-251.4891563;-251.402906;-251.2957063;-250.9556257;-248.4925654;-247.6300309;-247.4981664;-248.7375999;-250.1437103;-251.0392613;-251.1999595;-251.012338;-249.9105746;-249.8821778;-249.9464134;-250.2187801;-250.9402505;-251.1922567;-251.408307;-251.6382559;-251.4706277;-250.3189433;-248.485593;-248.2702082;-249.0094187;-250.4693386;-251.5121277;-251.7345306;-251.6823243;-250.7894813;-250.4821669;-250.4724019;-250.5390485;-250.7958158;-251.0840822;-251.285107;-251.3720478;-250.4718276;-248.8201413;-248.5758871;-248.4612871;-249.7593264;-250.8520718;-251.5414755;-251.6459861;-250.6410021;-249.6753999;-249.6120641;-249.8802722;-250.7470682;-251.0400306;-251.2309681;-251.1094813;-249.5833549;-247.6519284;-247.6313409;-248.5398747;-249.8425474;-250.9952255;-251.4382094;-251.4175663;-251.1832065;-250.474891;-250.4706788;-250.6321833;-250.7652983;-251.0111843;-251.1874427;-251.0538792;-249.7121227;-248.6175689;-248.5036843;-248.812017;-249.9807367;-250.5622299;-250.8125171;-250.6897085;-250.5725767;-250.5070614;-250.7133014;-250.8102134;-251.1458573;-251.2342428;-251.3618277;-251.1936047;-249.8042627;-249.3544879;-249.1629806;-249.4826397;-249.3222334;-249.5434392;-249.6906205;-249.9397405;-249.734961;-249.6771121;-249.7414326;-249.9058096;-250.0734567;-250.3076614;-250.5279383;-250.4969115;-249.4309834;-249.0832411;-248.7302362;-248.9893617;-251.0609965;-251.3753261;-251.3176787;-249.1283132;-248.9619305;-248.9505814;-250.6642024;-251.1737719;-251.4638732;-250.0902529;-250.3451443;-250.1631897;-249.9302084;-249.5753707;-249.2296903;-249.444845;-251.3298229;-251.8124936;-251.9648832;-250.1143059;-250.0652503;-249.9502266;-251.5381929;-251.5586626;-251.7124853;-250.2568098
