-254.1748374;-254.4179763;-254.1488144;-254.4118526;-254.1933722;-254.4859488;-254.503936;-254.4897041;-254.1695141;-254.0859474;-254.2892442;-254.2511629;-254.1921891;-254.2093459;-254.2296609;-254.2541222;-253.9605035;-254.2742471;-254.2849028;-254.291415;-254.3265473;-254.3352332;-254.0812188;-254.0818099;-254.1153077;-254.4059268;-254.1588681;-254.4432641;-254.4669761;-254.4565027;-254.4084946;-254.3855835;-254.3372073;-254.0047984;-254.3786715;-254.3593199;-254.2789829;-254.2975328;-254.3131248;-254.0412302;-254.3808438;-254.358925;-254.3656385;-254.3664283;-254.3901259;-254.4059268;-254.4223223;-254.1791751;-254.1933722;-254.4774502;-254.468557;-254.4266684;-254.0973754;-254.0487148;-254.2560951;-253.9115018;-254.1756261;-254.2042183;-254.2521494;-254.2436664;-254.260041;-254.3853861;-254.3172699;-254.3330617;-254.3411557;-254.139747;-254.1460547;-254.403359;-254.4025689;-254.4102724;-254.1375788;-254.1695141;-254.4399053;-254.437732;-254.407507;-254.0091303;-254.2592518;-254.2067821;-254.2393265;-254.2618167;-254.019173;-254.0229145;-254.0382759;-254.0642763;-254.1058486;-254.1539397;-254.165571;-254.4462279;-254.4760668;-254.2245325;-254.5074942;-254.5082849;-254.5725478;-254.6018229;-254.5013662;-254.2501765;-254.418964;-254.4035565;-254.3595173;-254.3277317;-254.038079;-254.0715653;-254.0889028;-254.3915084;-254.4278537;-254.4426714;-254.4385223;-254.4897041;-254.4823912;-254.5025522;-254.5407089;-254.3010853;-254.6156715;-254.6408008;-254.6164629;-254.5964816;-254.6216071;-254.5505959;-254.5128317;-254.4549219;-254.3782766;-254.3780791;-254.1038781;-254.1237821;-254.4523532;-254.1427037;-254.4205443;-254.433583;-254.4327928;-254.4725095;-254.2438637;-254.2856921;-254.6140887;-254.5620658;-254.3342461;-254.5656256;-254.3695877;-254.6665288;-254.5454545;-254.4851582;-254.4353611;-254.3909159;-254.3591224;-253.9983008;-254.291415;-254.3243759;-254.344512;-254.3768942;-254.4011863;-254.4150132;-254.1298919;-254.1592624;-254.4280513;-254.1789779;-254.1779921;-254.4762644;-254.4980058;-254.2695116;-254.2768123;-254.5181694;-254.5082849;-254.4671737;-254.1109722;-254.0995429;-254.3105589;-254.3200333;-254.3462888;-254.3370099;-254.3318772;-254.0932376;-254.3131248;-254.0625034;-254.0804308;-254.1507856;-254.4000012;-254.1959358;-254.4424738;-254.4744858;-254.4906924;-254.2839161;-254.2645789;-254.4707309;-254.4385223;-254.4657904;-254.2977302;-254.2710901;-253.9179949;-254.2355785;-254.2744444;-254.3070062;-254.3275343;-254.3707726;-254.505122;-254.3686004;-254.4284464;-254.4655927;-254.5978664;-254.4827865;-254.5035406;-254.3038484;-254.340366;-254.6645496;-254.6532684;-254.7065166;-254.6698937;-254.590745;-254.478636;-254.447611;-254.3968411;-254.4353611;-254.2363676;-254.2693142;-254.2939805;-254.2880602;-254.5381384;-254.539918;-254.5436749;-254.5438726;-254.5889647;-254.5622635;-254.3731422;-254.6111211;-254.633677;-254.4264709;-254.4160009;-254.4329903;-254.6059773;-254.4991919;-254.4946456;-254.433583;-254.4035565;-254.4084946;-254.365441;-254.3974336;-254.4116551;-254.4051367;-254.4282489;-254.1395499;-254.1237821;-254.4063218;-254.4385223;-254.4590716;-254.479229;-254.2653681;-254.5462455;-254.5513869;-254.5672078;-254.5442681;-254.260041;-254.2286747;-254.4361514;-254.4148156;-254.1239792;-254.3480657;-254.3484606;-254.3725498;-254.374722;-254.396446;-254.146646;-254.6473313;-254.5013662;-254.5163901;-254.4608501;-254.2395238;-254.4934596;-254.5037383;-254.504529;-254.5155993;-254.5314158;-254.5053197;-254.1553196;-254.3528042;-254.34313;-254.090085;-254.0392607;-254.2708927;-254.2837188;-253.9752667;-254.2592518;-254.3145065;-254.3385893;-254.3794615;-254.4000012;-254.4353611;-254.1917947;-254.2065848;-254.5013662;-254.5025522;-254.5146109;-254.7403774;-254.7572121;-254.5343816;-254.2722739;-254.4294342;-254.3812388;-254.3464863;-254.3265473;-254.3200333;-254.3366151;-254.3466837
-253.8658626;-253.8656659;-253.5723544;-253.6864158;-254.0810218;-254.1476316;-254.1746402;-253.9309821;-254.2667492;-254.3188489;-254.3539888;-254.3676131;-254.154334;-254.4235076;-254.2063876;-254.4810077;-254.4942502;-254.4260757;-254.2829294;-254.1486173;-253.7404393;-253.6897548;-253.94771;-253.9618813;-254.0079488;-254.009721;-254.1312716;-254.4118526;-254.2464282;-254.305822;-254.3362203;-254.3676131;-254.3838061;-254.1440835;-254.4365466;-254.2176293;-254.4987965;-254.4387198;-254.4393126;-254.4165935;-254.3555684;-254.2292664;-254.12122;-254.0589576;-253.9687707;-253.9429866;-254.162811;-253.9605035;-253.6891655;-253.7632343;-254.1411268;-253.8603555;-254.2109236;-254.2199961;-254.2349868;-254.395656;-254.3516196;-254.5059127;-254.4908901;-254.3348384;-254.3628741;-254.3435248;-254.0170068;-253.9111083;-254.0272471;-253.93295;-253.8987133;-253.8910408;-254.2294637;-254.2764176;-254.1614309;-254.2150653;-254.2799695;-254.3006906;-254.3385893;-254.5620658;-254.4090872;-254.4369417;-254.4740905;-254.5268684;-254.5527711;-254.3711675;-254.4122477;-254.3581352;-254.2975328;-254.1645853;-254.0315797;-254.0158253;-254.1793723;-254.0337461;-253.8021525;-254.0938287;-254.1255559;-254.1509828;-254.2334087;-254.4084946;-254.4503772;-254.2572788;-254.3210202;-254.3494477;-254.3626766;-254.4156058;-254.5681966;-254.5683944;-254.3618868;-254.2977302;-254.1588681;-254.0660493;-254.019173;-254.1427037;-254.1947526;-254.0323675;-254.0695952;-254.2835214;-254.3052299;-254.3285213;-254.3581352;-254.3903234;-253.9697549;-253.9817631;-253.9918036;-254.4339782;-254.2637897;-254.2728659;-254.0451694;-254.0390637;-253.9203561;-254.0589576;-253.9660149;-253.853472;-253.792127;-253.5435118;-254.1750346;-254.2357758;-254.0648673;-254.0847652;-254.1312716;-254.132257;-254.1606424;-254.1833158;-254.2099375;-254.2553059;-254.0303981;-254.3648486;-254.3561607;-254.3782766;-254.4867394;-254.4169886;-254.1720771;-253.999876;-253.8876965;-253.7999901;-253.7815126;-253.7758126;-253.9061895;-254.0355186;-254.0922524;-254.1291035;-254.1762176;-254.3867685;-254.2255188;-254.4576884;-254.4555147;-254.3101642;-254.3208228;-254.3664283;-254.1606424;-254.2101347;-254.2880602;-254.1446748;-253.9799913;-253.6102326;-253.8808115;-253.8446223;-253.8792379;-254.0481239;-254.1395499;-254.2314362;-254.2539249;-254.2697089;-254.3079931;-254.5189602;-254.3543837;-254.3907184;-254.4440545;-254.1955414;-254.4798219;-254.4899018;-254.1090016;-254.1149136;-254.258068;-254.1306803;-254.0447755;-253.9370826;-253.87196;-253.9018611;-253.9465292;-254.0140531;-254.0386698;-253.7748299;-254.1013164;-254.1456604;-254.3883485;-254.4015814;-254.4150132;-254.4329903;-254.436349;-254.4594668;-254.3717599;-254.1740488;-254.1602481;-254.3198359;-254.2034295;-254.0833861;-253.9986946;-253.9231109;-253.9211432;-254.1541368;-254.1149136;-253.9032383;-254.2472173;-253.9874723;-254.2631978;-254.0181883;-254.3145065;-254.3269421;-254.3488554;-254.5405111;-254.5500026;-254.5537599;-254.4904948;-254.3083878;-254.2464282;-254.1058486;-254.0223238;-253.908944;-253.8587821;-253.4401639;-254.0500936;-254.003617;-254.1054545;-254.1781893;-254.3798564;-254.4071119;-254.4385223;-254.3289161;-254.3565556;-254.3796589;-254.4084946;-254.4260757;-254.3824237;-254.3840036;-254.3980261;-254.5128317;-254.200077;-254.1214171;-254.1866678;-253.8735335;-253.8410826;-253.9213399;-253.5464546;-253.5970819;-253.6070921;-254.003617;-254.0948139;-254.1669511;-254.134228;-254.1663596;-254.2227574;-254.239721;-254.2470201;-254.2736552;-254.3048352;-254.3368125;-254.3575429;-254.194161;-254.0855533;-254.2570816;-253.8975329;-253.9132726;-254.2073737;-254.2132903;-254.213882;-254.1365933;-254.1196434;-254.1277239;-254.2196016;-254.2251243;-254.2687223;-254.4861464;-254.4879253;-254.3630715;-254.3676131;-254.379264;-254.4264709;-254.4205443;-254.3585301;-254.3759068;-254.1013164;-254.0804308
-253.8137517;-253.6017925;-253.6367345;-253.6815057;-254.0303981;-254.0542301;-253.7141123;-253.1159597;-253.7302222;-253.6110178;-253.494867;-253.0711923;-253.0790108;-253.0670878;-253.1372737;-253.5268371;-253.5370378;-252.7418873;-252.7816629;-253.3731406;-253.4117432;-253.4783947;-253.8432458;-253.8855326;-253.6025776;-253.703308;-253.7178449;-253.7376885;-253.696433;-253.8666493;-253.3635408;-253.6086623;-253.4907487;-253.0039734;-253.0461765;-253.4423202;-253.4495735;-253.1814775;-253.1382515;-253.1863683;-253.1808906;-253.2350905;-253.2613182;-253.348065;-253.4258547;-253.468983;-253.8513087;-253.5441004;-253.5855026;-253.6455697;-253.6192623;-253.4566311;-253.2760003;-253.165046;-253.0661106;-252.9918621;-252.972135;-252.9957689;-253.4442805;-253.0709969;-253.1061838;-253.1625032;-253.21376;-253.2667993;-253.6891655;-253.4091955;-252.9820958;-253.8233856;-253.5751017;-253.6074846;-253.6532273;-253.6889691;-253.7308116;-253.2133686;-253.4876111;-253.38666;-253.2556416;-253.1789344;-252.6405553;-252.6906265;-253.6094475;-253.5762791;-253.2671908;-253.3086985;-253.431539;-253.7659857;-253.4217387;-253.4654538;-253.5233062;-253.9028448;-253.6852374;-254.0215361;-254.0252777;-254.0565938;-254.0871295;-253.7775816;-253.5131066;-253.4164469;-252.6132874;-253.0995366;-252.544365;-253.0876117;-253.1024692;-253.1425539;-253.4987893;-253.5441004;-253.5825589;-253.5894277;-253.6396795;-253.6628491;-253.7088082;-253.5044768;-253.5286025;-253.9325564;-253.9418058;-253.9831412;-253.9711328;-253.6165141;-253.4831009;-253.4186028;-253.5154603;-253.4393797;-253.3821534;-253.0162812;-253.5705884;-253.5752979;-253.2810905;-252.8450567;-253.4115473;-253.8222059;-253.537234;-253.8922211;-253.6178882;-253.6383051;-253.6555836;-254.0051922;-253.7166662;-254.1306803;-254.09974;-253.8794346;-253.3827412;-253.2746299;-252.5799897;-252.5013562;-252.9750646;-253.0260501;-253.0369922;-253.0788154;-252.6047188;-253.1587869;-253.218652;-253.6345749;-253.3067403;-253.3572719;-253.3815656;-253.4648656;-253.4791791;-253.5450813;-253.5782415;-253.6367345;-253.6817021;-253.6734536;-253.5399805;-253.3872478;-253.2787411;-253.1613296;-253.1167418;-253.0917169;-253.1165462;-253.529191;-253.5015349;-253.1556575;-253.5856988;-253.3461062;-253.6989865;-253.3823493;-253.4042961;-253.4625128;-253.5082032;-253.569411;-253.9055992;-253.9412154;-253.7329729;-253.75557;-253.2589692;-253.6889691;-253.5486127;-253.0385554;-252.9869789;-253.3343539;-253.3439515;-253.3474773;-253.0586838;-253.0928898;-253.1036422;-253.1671976;-253.5931566;-253.2977329;-253.3280864;-253.40508;-253.4654538;-253.4727084;-253.5525367;-253.5868764;-253.689362;-253.7017365;-253.6549945;-253.4760417;-253.355117;-253.5962969;-253.1370781;-253.1423583;-253.1609384;-253.1851945;-253.5727469;-253.6119993;-253.6059143;-253.5847176;-253.6412502;-253.6697223;-253.7178449;-253.4603562;-253.5007504;-253.9103212;-253.6652056;-254.0231115;-253.7229528;-254.0447755;-253.6204401;-253.5248755;-253.3598186;-253.2566203;-253.4825126;-253.4570232;-253.089762;-252.638023;-253.5144796;-253.4817282;-253.5060458;-253.2102378;-253.2499652;-253.649693;-253.372161;-253.7365096;-253.4917292;-253.8485554;-253.537234;-253.5670563;-253.6172993;-253.1894984;-253.0567294;-253.3688304;-253.2560331;-253.1300382;-253.415075;-253.377451;-252.9955735;-253.035429;-253.4685908;-253.447221;-253.2474207;-253.2127816;-253.2859851;-253.2824609;-253.3384671;-253.7082189;-253.6966294;-253.7386709;-253.4693751;-253.5525367;-253.6302557;-253.9345243;-253.4105673;-253.3251487;-253.1883246;-253.0860479;-253.0149136;-252.450193;-252.4708114;-252.4828728;-253.0923033;-253.4927098;-253.5231101;-253.5083993;-253.546847;-252.767428;-252.8393987;-253.4513378;-253.4915331;-253.5611698;-253.5974745;-253.6361455;-253.9774322;-253.6412502;-253.8644858;-253.3653039;-253.2660163;-252.6428928;-253.1249541;-253.4668262